Wavelength	Mean	Std+	Std-
350	0.107092425	0.111917598	0.102267252
351	0.107142825	0.112000997	0.102284653
352	0.10750215	0.112362889	0.102641411
353	0.107644475	0.11247523	0.10281372
354	0.10781775	0.112627767	0.103007733
355	0.108050375	0.11285203	0.10324872
356	0.108441275	0.113268628	0.103613922
357	0.1087286	0.113563335	0.103893865
358	0.108999	0.113836921	0.104161079
359	0.10943675	0.114294213	0.104579287
360	0.10968825	0.114532056	0.104844444
361	0.1099584	0.114794319	0.105122481
362	0.1103767	0.115230024	0.105523376
363	0.11069035	0.115586653	0.105794047
364	0.1110465	0.115957919	0.106135081
365	0.11145995	0.116359885	0.106560015
366	0.1119309	0.116835215	0.107026585
367	0.112289725	0.117218689	0.107360761
368	0.1126194	0.117577889	0.107660911
369	0.1131213	0.118062922	0.108179678
370	0.113740375	0.118703419	0.108777331
371	0.114341	0.119339974	0.109342026
372	0.1148134	0.119855103	0.109771697
373	0.11551825	0.120583692	0.110452808
374	0.116257575	0.12134189	0.11117326
375	0.117004825	0.122102235	0.111907415
376	0.1178167	0.122946213	0.112687187
377	0.118636125	0.123797215	0.113475035
378	0.119466425	0.124658816	0.114274034
379	0.12027175	0.125506954	0.115036546
380	0.120920575	0.126197873	0.115643277
381	0.12163925	0.126947557	0.116330943
382	0.12265225	0.127963535	0.117340965
383	0.1233179	0.128664627	0.117971173
384	0.124121375	0.129522513	0.118720237
385	0.12516005	0.130634387	0.119685713
386	0.126060425	0.131585347	0.120535503
387	0.12688455	0.132470073	0.121299027
388	0.1276595	0.133313877	0.122005123
389	0.128501725	0.134201784	0.122801666
390	0.129326475	0.135045644	0.123607306
391	0.13011935	0.135858076	0.124380624
392	0.1308824	0.136666654	0.125098146
393	0.131660675	0.137493212	0.125828138
394	0.1325252	0.138411934	0.126638466
395	0.13346985	0.139421969	0.127517731
396	0.134297025	0.140298469	0.128295581
397	0.13514235	0.141197186	0.129087514
398	0.135959025	0.142069915	0.129848135
399	0.13660445	0.142777235	0.130431665
400	0.137177025	0.143387576	0.130966474
401	0.137769175	0.144010207	0.131528143
402	0.13853605	0.144815461	0.132256639
403	0.139147375	0.145442206	0.132852544
404	0.139742375	0.146050989	0.133433761
405	0.140370375	0.146696557	0.134044193
406	0.14101955	0.147379751	0.134659349
407	0.14168305	0.14807957	0.13528653
408	0.1423596	0.148795088	0.135924112
409	0.143065025	0.149545082	0.136584968
410	0.143773	0.150294352	0.137251648
411	0.144469975	0.151029652	0.137910298
412	0.145159125	0.151753885	0.138564365
413	0.1458135	0.152439406	0.139187594
414	0.1464551	0.153113483	0.139796717
415	0.14710075	0.153795995	0.140405505
416	0.1478101	0.154548465	0.141071735
417	0.148538	0.155317675	0.141758325
418	0.149279375	0.156099186	0.142459564
419	0.150024375	0.156889613	0.143159137
420	0.1507972	0.157699335	0.143895065
421	0.1515835	0.158522424	0.144644576
422	0.152378775	0.159368549	0.145389001
423	0.153193675	0.160238429	0.146148921
424	0.1540227	0.161116575	0.146928825
425	0.1548774	0.162009463	0.147745337
426	0.155745425	0.162926936	0.148563914
427	0.156650825	0.16388617	0.14941548
428	0.1576005	0.164893646	0.150307354
429	0.158620925	0.165980822	0.151261028
430	0.1596728	0.167104881	0.152240719
431	0.160741825	0.168248477	0.153235173
432	0.1618392	0.169421286	0.154257114
433	0.162897525	0.170556799	0.155238251
434	0.163946175	0.171677293	0.156215057
435	0.165012875	0.172806935	0.157218815
436	0.165959775	0.173812223	0.158107327
437	0.166949925	0.174860213	0.159039637
438	0.167997825	0.175966833	0.160028817
439	0.1690313	0.177068858	0.160993742
440	0.170015425	0.178112919	0.161917931
441	0.170976625	0.179129559	0.162823691
442	0.171985725	0.180197676	0.163773774
443	0.1729374	0.181206426	0.164668374
444	0.1738519	0.182177288	0.165526512
445	0.17473215	0.183113814	0.166350486
446	0.175557375	0.183978644	0.167136106
447	0.176354125	0.184816021	0.167892229
448	0.17712905	0.18563534	0.16862276
449	0.177862675	0.186411226	0.169314124
450	0.1785645	0.187144531	0.169984469
451	0.1792373	0.187843794	0.170630806
452	0.179864	0.188505328	0.171222672
453	0.18045305	0.189118176	0.171787924
454	0.18101115	0.189694716	0.172327584
455	0.181530175	0.190228461	0.172831889
456	0.182019625	0.190741452	0.173297798
457	0.18249085	0.19122991	0.17375179
458	0.182939	0.191685962	0.174192038
459	0.1833511	0.192113566	0.174588634
460	0.18373985	0.192519964	0.174959736
461	0.1841127	0.192909472	0.175315928
462	0.184481975	0.193280312	0.175683638
463	0.184812375	0.193615993	0.176008757
464	0.185135275	0.193947797	0.176322753
465	0.185472425	0.194299263	0.176645587
466	0.185805925	0.194633279	0.176978571
467	0.186160625	0.194997884	0.177323366
468	0.18654405	0.19540632	0.17768178
469	0.1868035	0.195676026	0.177930974
470	0.1871113	0.195999285	0.178223315
471	0.187456875	0.196363505	0.178550245
472	0.1878194	0.196738464	0.178900336
473	0.1881921	0.197119932	0.179264268
474	0.188565425	0.197504066	0.179626784
475	0.18893225	0.197890881	0.179973619
476	0.189341525	0.1983082	0.18037485
477	0.1897521	0.198734421	0.180769779
478	0.190156675	0.199167355	0.181145995
479	0.190628625	0.199669963	0.181587287
480	0.191102925	0.200164916	0.182040934
481	0.1915821	0.200658142	0.182506058
482	0.19209405	0.201192102	0.182995998
483	0.1926431	0.201763158	0.183523042
484	0.1932175	0.202362843	0.184072157
485	0.193801575	0.202980809	0.184622341
486	0.194401025	0.203616501	0.185185549
487	0.195030775	0.204284983	0.185776567
488	0.195698625	0.204994742	0.186402508
489	0.1963895	0.205738972	0.187040028
490	0.19708425	0.206474726	0.187693774
491	0.197775725	0.207197477	0.188353973
492	0.1984957	0.207959783	0.189031617
493	0.199254725	0.208760484	0.189748966
494	0.200024525	0.209572772	0.190476278
495	0.20077325	0.210367961	0.191178539
496	0.201542175	0.211179816	0.191904534
497	0.202327375	0.212006078	0.192648672
498	0.203138075	0.212856972	0.193419178
499	0.20400395	0.213763096	0.194244804
500	0.2048486	0.214656263	0.195040937
501	0.20567395	0.215536814	0.195811086
502	0.206532825	0.216440466	0.196625184
503	0.207397325	0.217359987	0.197434663
504	0.2082518	0.218270515	0.198233085
505	0.209080975	0.219141839	0.199020111
506	0.209954925	0.220061402	0.199848448
507	0.210837925	0.220995161	0.200680689
508	0.21172445	0.221940336	0.201508564
509	0.212626625	0.222882926	0.202370324
510	0.21352105	0.223827993	0.203214107
511	0.2144107	0.224778951	0.204042449
512	0.2153148	0.225725871	0.204903729
513	0.2162057	0.226660792	0.205750608
514	0.2170967	0.227596214	0.206597186
515	0.217994925	0.228536674	0.207453176
516	0.218913325	0.229509745	0.208316905
517	0.21983885	0.230493107	0.209184593
518	0.2207584	0.231469298	0.210047502
519	0.22165645	0.23243054	0.21088236
520	0.22257715	0.233412349	0.211741951
521	0.2235138	0.234405871	0.212621729
522	0.22443105	0.235366028	0.213496072
523	0.2253377	0.236312527	0.214362873
524	0.2262439	0.237259999	0.215227801
525	0.227155975	0.238226057	0.216085893
526	0.228092225	0.239207392	0.216977058
527	0.229016425	0.240177866	0.217854984
528	0.22991305	0.241129143	0.218696957
529	0.23082835	0.242091062	0.219565638
530	0.231740275	0.243047504	0.220433046
531	0.232644125	0.243994519	0.221293731
532	0.23351965	0.244908167	0.222131133
533	0.234418225	0.245849119	0.222987331
534	0.235334725	0.246810537	0.223858913
535	0.2362535	0.247774202	0.224732798
536	0.237148175	0.248705835	0.225590515
537	0.238024375	0.249616377	0.226432373
538	0.23888465	0.250511033	0.227258267
539	0.23977105	0.251434236	0.228107864
540	0.24066195	0.25236162	0.22896228
541	0.24154775	0.253282696	0.229812804
542	0.242409075	0.254184027	0.230634123
543	0.243282075	0.255095162	0.231468988
544	0.244157	0.256005676	0.232308324
545	0.24502075	0.256897927	0.233143573
546	0.2458804	0.257785234	0.233975566
547	0.246743675	0.258676026	0.234811324
548	0.247622775	0.259583718	0.235661832
549	0.2484936	0.260480849	0.236506351
550	0.2493567	0.261369464	0.237343936
551	0.2502106	0.262248327	0.238172873
552	0.251075775	0.263140032	0.239011518
553	0.251914075	0.263999782	0.239828368
554	0.25273395	0.26483718	0.24063072
555	0.2535509	0.265670028	0.241431772
556	0.254357775	0.266490373	0.242225177
557	0.25516405	0.267311081	0.243017019
558	0.2559721	0.268138974	0.243805226
559	0.256767475	0.268955528	0.244579422
560	0.257569775	0.269777162	0.245362388
561	0.2583816	0.270605282	0.246157918
562	0.259153875	0.271388262	0.246919488
563	0.25992535	0.272165197	0.247685503
564	0.26069655	0.272939249	0.248453851
565	0.26144775	0.273704758	0.249190742
566	0.26217315	0.274438756	0.249907544
567	0.262885775	0.275155733	0.250615817
568	0.26358855	0.275858291	0.251318809
569	0.26428755	0.276562173	0.252012927
570	0.264982075	0.277263235	0.252700915
571	0.265667725	0.277956958	0.253378492
572	0.26634825	0.27864353	0.25405297
573	0.2670179	0.279315673	0.254720127
574	0.26767425	0.279971617	0.255376883
575	0.26828945	0.280586883	0.255992017
576	0.2689124	0.281206799	0.256618001
577	0.2695414	0.281834312	0.257248488
578	0.27016675	0.282468227	0.257865273
579	0.270753775	0.283058633	0.258448917
580	0.27133915	0.283647145	0.259031155
581	0.2719346	0.284247175	0.259622025
582	0.272497375	0.284804078	0.260190672
583	0.2730216	0.285320524	0.260722676
584	0.273510125	0.285800059	0.261220191
585	0.273972925	0.286256397	0.261689453
586	0.2743812	0.286653917	0.262108483
587	0.27476195	0.287020943	0.262502957
588	0.27513545	0.287378597	0.262892303
589	0.27548845	0.287733239	0.263243661
590	0.275853375	0.288102964	0.263603786
591	0.27624365	0.288495357	0.263991943
592	0.276664525	0.288914103	0.264414947
593	0.27708275	0.289328102	0.264837398
594	0.2774984	0.289738091	0.265258709
595	0.277899775	0.290138878	0.265660672
596	0.278304525	0.290545647	0.266063403
597	0.278713175	0.290956313	0.266470037
598	0.279127775	0.291366618	0.266888932
599	0.279525725	0.291769423	0.267282027
600	0.27991925	0.292170255	0.267668245
601	0.280310625	0.292568143	0.268053107
602	0.28073135	0.292999766	0.268462934
603	0.2811367	0.293412402	0.268860998
604	0.281523275	0.293801937	0.269244613
605	0.2819405	0.294223617	0.269657383
606	0.282339775	0.294628513	0.270051037
607	0.28273095	0.295025705	0.270436195
608	0.2831221	0.295421571	0.270822629
609	0.283525075	0.295828009	0.271222141
610	0.283935875	0.296239103	0.271632647
611	0.284347625	0.296644825	0.272050425
612	0.284741175	0.297037894	0.272444456
613	0.2851252	0.29742448	0.27282592
614	0.2855017	0.29780595	0.27319745
615	0.285917725	0.298213961	0.273621489
616	0.28636005	0.298653403	0.274066697
617	0.286813125	0.299106097	0.274520153
618	0.28723065	0.299517847	0.274943453
619	0.287600225	0.299876395	0.275324055
620	0.287964225	0.300228572	0.275699878
621	0.28835265	0.300607821	0.276097479
622	0.288736075	0.300974409	0.276497741
623	0.28912985	0.301357836	0.276901864
624	0.289535575	0.301763047	0.277308103
625	0.289903825	0.302123042	0.277684608
626	0.290269825	0.302481484	0.278058166
627	0.29063335	0.302838392	0.278428308
628	0.29100225	0.303201431	0.278803069
629	0.291387925	0.303582681	0.279193169
630	0.2917806	0.303972154	0.279589046
631	0.292177075	0.304367683	0.279986467
632	0.292510275	0.304699109	0.280321441
633	0.2928419	0.305031381	0.280652419
634	0.293184925	0.305378175	0.280991675
635	0.293552425	0.305740629	0.281364221
636	0.29393225	0.306118234	0.281746266
637	0.294319425	0.306505313	0.282133537
638	0.2946962	0.306882407	0.282509993
639	0.29506995	0.307254371	0.282885529
640	0.295435975	0.307620738	0.283251212
641	0.295786925	0.307980175	0.283593675
642	0.29612605	0.30832292	0.28392918
643	0.296449925	0.308645525	0.284254325
644	0.29675815	0.308946735	0.284569565
645	0.297073125	0.309258237	0.284888013
646	0.2973728	0.309559581	0.285186019
647	0.297664375	0.309857856	0.285470894
648	0.29798475	0.310190479	0.285779021
649	0.298325525	0.310546232	0.286104818
650	0.29867665	0.310909239	0.286444061
651	0.29903595	0.311268621	0.286803279
652	0.299382075	0.311619241	0.287144909
653	0.2997269	0.311964569	0.287489231
654	0.3000811	0.312311933	0.287850267
655	0.3004151	0.312657118	0.288173082
656	0.300758275	0.313021515	0.288495035
657	0.3011064	0.313394536	0.288818264
658	0.30153045	0.313812424	0.289248476
659	0.30194295	0.314224892	0.289661008
660	0.30234825	0.314631342	0.290065158
661	0.302747375	0.315025086	0.290469664
662	0.303147075	0.315425635	0.290868515
663	0.30352775	0.315806816	0.291248684
664	0.3038745	0.316151337	0.291597663
665	0.30424115	0.316515704	0.291966596
666	0.304598325	0.316870553	0.292326097
667	0.304947475	0.317217009	0.292677941
668	0.305317	0.317579822	0.293054178
669	0.3056866	0.317947418	0.293425782
670	0.306053875	0.318314806	0.293792944
671	0.306410625	0.318670088	0.294151162
672	0.306751825	0.319010044	0.294493606
673	0.307092825	0.319350087	0.294835563
674	0.3074426	0.319699659	0.295185541
675	0.30783	0.320085235	0.295574765
676	0.3081841	0.320435629	0.295932571
677	0.3085019	0.320748148	0.296255652
678	0.308840825	0.321084801	0.296596849
679	0.309174075	0.321417594	0.296930556
680	0.309510425	0.321753365	0.297267485
681	0.3098726	0.322108525	0.297636675
682	0.31023525	0.322464369	0.298006131
683	0.3105742	0.322792909	0.298355491
684	0.310869625	0.323070048	0.298669202
685	0.311082925	0.323255407	0.298910443
686	0.31129135	0.32345294	0.29912976
687	0.31150485	0.323678474	0.299331226
688	0.31188715	0.324068225	0.299706075
689	0.312323275	0.324509238	0.300137312
690	0.312783925	0.324971391	0.300596459
691	0.313230425	0.325410664	0.301050186
692	0.313649875	0.325824728	0.301475022
693	0.314070125	0.326244234	0.301896016
694	0.31450505	0.326686818	0.302323282
695	0.31496325	0.327148619	0.302777881
696	0.315413275	0.327596779	0.303229771
697	0.315856825	0.328032718	0.303680932
698	0.316262275	0.328435716	0.304088834
699	0.31663655	0.328807822	0.304465278
700	0.31700375	0.329173511	0.304833989
701	0.3174426	0.329613479	0.305271721
702	0.31787325	0.330050469	0.305696031
703	0.31831465	0.330498568	0.306130732
704	0.3187972	0.330984976	0.306609424
705	0.319240825	0.331425033	0.307056617
706	0.31968585	0.331870325	0.307501375
707	0.320139825	0.332330726	0.307948924
708	0.3205751	0.332769185	0.308381015
709	0.321002325	0.333198353	0.308806297
710	0.321423475	0.33362048	0.30922647
711	0.32184445	0.334041228	0.309647672
712	0.322258725	0.334457463	0.310059987
713	0.3226505	0.334848771	0.310452229
714	0.32299305	0.335182232	0.310803868
715	0.32324505	0.335417323	0.311072777
716	0.3234782	0.335638029	0.311318371
717	0.323702725	0.335860398	0.311545052
718	0.324073075	0.33625566	0.31189049
719	0.3245777	0.33678866	0.31236674
720	0.32514405	0.337377132	0.312910968
721	0.32569945	0.337912381	0.313486519
722	0.32612705	0.338333009	0.313921091
723	0.326513425	0.33872138	0.31430547
724	0.326876775	0.339096327	0.314657223
725	0.327320075	0.339541968	0.315098182
726	0.327778175	0.340002445	0.315553905
727	0.328242225	0.340471748	0.316012702
728	0.328658125	0.340894424	0.316421826
729	0.32909475	0.341339428	0.316850072
730	0.32955765	0.341812204	0.317303096
731	0.33012925	0.342396499	0.317862001
732	0.330684925	0.342954907	0.318414943
733	0.331199925	0.343467684	0.318932166
734	0.3316371	0.343900671	0.319373529
735	0.332037875	0.344307418	0.319768332
736	0.33244995	0.344724844	0.320175056
737	0.332892175	0.345167986	0.320616364
738	0.3333539	0.345637204	0.321070596
739	0.333784675	0.346072389	0.321496961
740	0.334184925	0.346474259	0.321895591
741	0.3345891	0.346883181	0.322295019
742	0.334952325	0.347245397	0.322659253
743	0.335298575	0.34758901	0.32300814
744	0.33566215	0.347954313	0.323369987
745	0.336024375	0.348320099	0.323728651
746	0.33638115	0.348677677	0.324084623
747	0.336731725	0.349023614	0.324439836
748	0.3370446	0.34933421	0.32475499
749	0.3373419	0.349632395	0.325051405
750	0.3376272	0.34992089	0.32533351
751	0.33793605	0.350225641	0.325646459
752	0.338241075	0.350527653	0.325954497
753	0.338542675	0.350827394	0.326257956
754	0.338842375	0.351127508	0.326557242
755	0.3391407	0.351422477	0.326858923
756	0.33939325	0.351657591	0.327128909
757	0.3395696	0.351789495	0.327349705
758	0.3390342	0.351142756	0.326925644
759	0.3382337	0.350275076	0.326192324
760	0.3374194	0.349516169	0.325322631
761	0.3378099	0.349920382	0.325699418
762	0.33827645	0.350404497	0.326148403
763	0.338883725	0.351038306	0.326729144
764	0.339746475	0.351947955	0.327544995
765	0.340572	0.352802406	0.328341594
766	0.3412824	0.35352757	0.32903723
767	0.341893575	0.354138865	0.329648285
768	0.342282975	0.354527878	0.330038072
769	0.34261475	0.354860681	0.330368819
770	0.342910875	0.355159285	0.330662465
771	0.3431776	0.355424748	0.330930452
772	0.3434259	0.355668103	0.331183697
773	0.3436651	0.355900939	0.331429261
774	0.3439142	0.35614841	0.33167999
775	0.3441382	0.356368983	0.331907417
776	0.344359675	0.356586925	0.332132425
777	0.3445945	0.35681916	0.33236984
778	0.3447816	0.357005021	0.332558179
779	0.344954875	0.35717365	0.3327361
780	0.345120925	0.35733113	0.33291072
781	0.3453727	0.35757986	0.33316554
782	0.3456049	0.357811034	0.333398766
783	0.345821725	0.358027447	0.333616003
784	0.346024	0.358224488	0.333823512
785	0.3462015	0.358397702	0.334005298
786	0.34634705	0.35853886	0.33415524
787	0.346435725	0.358622611	0.334248839
788	0.346581875	0.35876447	0.33439928
789	0.346746375	0.358922863	0.334569887
790	0.34692255	0.35909003	0.33475507
791	0.34713145	0.359304135	0.334958765
792	0.347356975	0.359528517	0.335185433
793	0.347576575	0.359741771	0.335411379
794	0.347685725	0.359844344	0.335527106
795	0.347822975	0.359977443	0.335668507
796	0.34800005	0.360152703	0.335847397
797	0.34824925	0.360403128	0.336095372
798	0.34840825	0.360555075	0.336261425
799	0.34855545	0.360696093	0.336414807
800	0.348705675	0.360843355	0.336567995
801	0.34885955	0.360995085	0.336724015
802	0.34901325	0.361145209	0.336881291
803	0.349176375	0.361304525	0.337048225
804	0.349406375	0.361535992	0.337276758
805	0.349586975	0.361709852	0.337464098
806	0.349750275	0.361865049	0.337635501
807	0.34992805	0.362041553	0.337814547
808	0.3500319	0.362142348	0.337921452
809	0.350111125	0.362216985	0.338005265
810	0.350175	0.362274507	0.338075493
811	0.350181275	0.362270035	0.338092515
812	0.350187075	0.362266932	0.338107218
813	0.35019445	0.362266705	0.338122195
814	0.350203075	0.362267337	0.338138813
815	0.35025915	0.362319606	0.338198694
816	0.350369375	0.362428573	0.338310177
817	0.35057265	0.362631798	0.338513502
818	0.350813875	0.362873251	0.338754499
819	0.35105155	0.36311415	0.33898895
820	0.351277025	0.363347638	0.339206412
821	0.351266675	0.363308987	0.339224363
822	0.351365425	0.363393604	0.339337246
823	0.351578425	0.363609853	0.339546997
824	0.351823875	0.363864211	0.339783539
825	0.3519698	0.364002875	0.339936725
826	0.3520702	0.364089805	0.340050595
827	0.352164175	0.364177449	0.340150901
828	0.352313375	0.364337648	0.340289102
829	0.35248965	0.364522802	0.340456498
830	0.35268825	0.364717297	0.340659203
831	0.35281635	0.364840714	0.340791986
832	0.352985925	0.365001583	0.340970267
833	0.35319585	0.365200885	0.341190815
834	0.353345425	0.365361114	0.341329736
835	0.35350235	0.365518016	0.341486684
836	0.353648175	0.365657243	0.341639107
837	0.353735225	0.365736047	0.341734403
838	0.35389375	0.365886352	0.341901148
839	0.354075025	0.366059388	0.342090662
840	0.354260625	0.366236828	0.342284422
841	0.3543792	0.366354951	0.342403449
842	0.3544967	0.366471202	0.342522198
843	0.3546198	0.366592004	0.342647596
844	0.354756075	0.366731825	0.342780325
845	0.354889125	0.366864998	0.342913252
846	0.355021475	0.366994473	0.343048477
847	0.355158975	0.367123824	0.343194126
848	0.3552575	0.367216447	0.343298553
849	0.355364775	0.367320884	0.343408666
850	0.355512975	0.367470811	0.343555139
851	0.35561895	0.36758159	0.34365631
852	0.355705275	0.367661774	0.343748776
853	0.3557787	0.367715805	0.343841595
854	0.355930675	0.367853314	0.344008036
855	0.356046125	0.367973738	0.344118512
856	0.356137375	0.368078545	0.344196205
857	0.35624295	0.36818151	0.34430439
858	0.3563353	0.368266049	0.344404551
859	0.35645315	0.368376755	0.344529545
860	0.356636675	0.368558738	0.344714612
