Wavelength	Mean	Std+	Std-
350	0.1273545	0.136958839	0.117750161
351	0.1272711	0.136843322	0.117698878
352	0.12746425	0.13714	0.1177885
353	0.127529125	0.137108427	0.117949823
354	0.127646125	0.13712802	0.11816423
355	0.127810225	0.137219162	0.118401288
356	0.127743975	0.137221822	0.118266128
357	0.127805975	0.137223119	0.118388831
358	0.12795755	0.137292653	0.118622447
359	0.12817685	0.137622946	0.118730754
360	0.12831425	0.137778857	0.118849643
361	0.1284217	0.137893925	0.118949475
362	0.128519575	0.138031627	0.119007523
363	0.128549775	0.138028085	0.119071465
364	0.128667375	0.138145655	0.119189095
365	0.128887	0.138407227	0.119366773
366	0.12913805	0.13863374	0.11964236
367	0.129428675	0.138877623	0.119979727
368	0.129715275	0.139138695	0.120291855
369	0.129863675	0.139424772	0.120302578
370	0.1300073	0.139577354	0.120437246
371	0.1302203	0.139767529	0.120673071
372	0.1305833	0.140130879	0.121035721
373	0.1309421	0.14045354	0.12143066
374	0.131262975	0.140752542	0.121773408
375	0.1315406	0.141031412	0.122049788
376	0.131940925	0.141459061	0.122422789
377	0.13239335	0.141998003	0.122788697
378	0.132888025	0.142604611	0.123171439
379	0.13338325	0.143105205	0.123661295
380	0.13375915	0.14355418	0.12396412
381	0.13409905	0.143932116	0.124265984
382	0.13445945	0.144188111	0.124730789
383	0.13490515	0.144689538	0.125120762
384	0.1353247	0.145174997	0.125474403
385	0.13569955	0.145598932	0.125800168
386	0.136372525	0.146304207	0.126440843
387	0.13689665	0.146846945	0.126946355
388	0.137322075	0.147300541	0.127343609
389	0.137813875	0.147946534	0.127681216
390	0.1382312	0.148374929	0.128087471
391	0.138580675	0.148721976	0.128439374
392	0.138850625	0.14909281	0.12860844
393	0.139404475	0.1496408	0.12916815
394	0.1398835	0.150122945	0.129644055
395	0.140199975	0.15047478	0.12992517
396	0.14059065	0.150960425	0.130220875
397	0.1409559	0.151374896	0.130536904
398	0.1412825	0.15172796	0.13083704
399	0.14150995	0.152029567	0.130990333
400	0.141753975	0.152296722	0.131211228
401	0.1419917	0.152524752	0.131458648
402	0.142219325	0.152710636	0.131728014
403	0.142467925	0.152976487	0.131959363
404	0.142694225	0.153205698	0.132182752
405	0.142892075	0.153372648	0.132411502
406	0.14305315	0.153595238	0.132511062
407	0.1432181	0.153769671	0.132666529
408	0.1433896	0.153916777	0.132862423
409	0.14358335	0.154157872	0.133008828
410	0.143814125	0.154413805	0.133214445
411	0.144045	0.154647377	0.133442623
412	0.1442389	0.154808565	0.133669235
413	0.1444136	0.155001566	0.133825634
414	0.14457045	0.155172305	0.133968595
415	0.1447093	0.155302547	0.134116053
416	0.144913275	0.155513684	0.134312866
417	0.145078675	0.155693193	0.134464157
418	0.145213075	0.15584465	0.1345815
419	0.14540035	0.156026071	0.134774629
420	0.1456132	0.156263993	0.134962407
421	0.1458249	0.156504394	0.135145406
422	0.14599415	0.156663385	0.135324915
423	0.14619915	0.156879276	0.135519024
424	0.14640195	0.157096879	0.135707021
425	0.1465896	0.157297312	0.135881888
426	0.14684815	0.157545034	0.136151266
427	0.14705015	0.157760388	0.136339912
428	0.147192225	0.157939608	0.136444842
429	0.147363675	0.158119933	0.136607417
430	0.147599525	0.15837671	0.13682234
431	0.147855425	0.158660178	0.137050672
432	0.148060725	0.158894913	0.137226537
433	0.148243025	0.159111719	0.137374331
434	0.148426125	0.159323725	0.137528525
435	0.148624925	0.159539337	0.137710513
436	0.1488189	0.15973652	0.13790128
437	0.149014825	0.159932658	0.138096992
438	0.14921245	0.160130636	0.138294264
439	0.14938345	0.160328319	0.138438581
440	0.149540875	0.160503918	0.138577832
441	0.149693525	0.160672385	0.138714665
442	0.149864575	0.160870411	0.138858739
443	0.149991925	0.16102351	0.13896034
444	0.1501062	0.161151958	0.139060442
445	0.150221825	0.161260032	0.139183618
446	0.15034345	0.161404419	0.139282481
447	0.15046425	0.16154312	0.13938538
448	0.1505853	0.161673577	0.139497023
449	0.15073175	0.161833527	0.139629973
450	0.15086265	0.161968007	0.139757293
451	0.150980725	0.162083519	0.139877931
452	0.15108445	0.162185066	0.139983834
453	0.151208	0.16232279	0.14009321
454	0.1513434	0.162472801	0.140213999
455	0.1514899	0.162622026	0.140357774
456	0.15159455	0.162747302	0.140441798
457	0.151683575	0.162850724	0.140516426
458	0.1517603	0.16293064	0.14058996
459	0.151864175	0.163028343	0.140700007
460	0.1519541	0.163128402	0.140779798
461	0.1520347	0.163225381	0.140844019
462	0.1521161	0.163297262	0.140934938
463	0.15216785	0.16334641	0.14098929
464	0.152207975	0.163386829	0.141029121
465	0.152246	0.163425753	0.141066247
466	0.152338425	0.163512629	0.141164221
467	0.1524062	0.163585097	0.141227303
468	0.1524291	0.163627425	0.141230775
469	0.15249025	0.163699873	0.141280627
470	0.152542725	0.163759325	0.141326125
471	0.15258925	0.163809948	0.141368552
472	0.152638775	0.163866013	0.141411537
473	0.152706225	0.163941614	0.141470836
474	0.152768375	0.164016034	0.141520716
475	0.152797975	0.164066813	0.141529137
476	0.152891575	0.164156873	0.141626277
477	0.152984375	0.164256068	0.141712682
478	0.1530615	0.16435838	0.14176462
479	0.15314485	0.164455636	0.141834064
480	0.15323055	0.164555439	0.141905661
481	0.153319725	0.164657888	0.141981562
482	0.153425125	0.164768431	0.142081819
483	0.15353975	0.164879849	0.142199651
484	0.153658975	0.164999542	0.142318408
485	0.153776425	0.165138513	0.142414337
486	0.153899775	0.165295306	0.142504244
487	0.1540006	0.165437227	0.142563973
488	0.1540652	0.16555061	0.14257979
489	0.154183575	0.165703126	0.142664024
490	0.154278125	0.165825551	0.142730699
491	0.1543544	0.16592373	0.14278507
492	0.154466025	0.166050075	0.142881975
493	0.1545836	0.166195831	0.142971369
494	0.154702675	0.166345369	0.143059981
495	0.154818525	0.166478432	0.143158618
496	0.154968825	0.166651721	0.143285929
497	0.15510335	0.166809786	0.143396914
498	0.155200825	0.166930023	0.143471627
499	0.155353075	0.167108861	0.143597289
500	0.1554963	0.167286576	0.143706024
501	0.155630325	0.167461096	0.143799554
502	0.155788275	0.167651468	0.143925082
503	0.155929825	0.167833255	0.144026395
504	0.1560668	0.168011913	0.144121687
505	0.15621995	0.168198419	0.144241481
506	0.156351825	0.168371783	0.144331867
507	0.1564841	0.16853746	0.14443074
508	0.1566285	0.168698103	0.144558897
509	0.156785875	0.168884937	0.144686813
510	0.1569306	0.169061664	0.144799536
511	0.1570658	0.169230402	0.144901198
512	0.1572408	0.169434788	0.145046812
513	0.15739425	0.169616356	0.145172144
514	0.157537675	0.169787202	0.145288148
515	0.157685425	0.169962401	0.145408449
516	0.157802025	0.170122172	0.145481878
517	0.15792825	0.170301239	0.145555261
518	0.158088975	0.170524293	0.145653657
519	0.1582363	0.170732744	0.145739856
520	0.15837615	0.170927408	0.145824892
521	0.158508975	0.171106621	0.145911329
522	0.158653025	0.17127247	0.14603358
523	0.15880615	0.171446213	0.146166087
524	0.158964725	0.171626795	0.146302655
525	0.159121275	0.171812539	0.146430011
526	0.159276775	0.172004166	0.146549384
527	0.1594362	0.172206658	0.146665742
528	0.159605875	0.172428853	0.146782897
529	0.159750175	0.172621516	0.146878834
530	0.15990875	0.172813469	0.147004031
531	0.160085675	0.173007783	0.147163567
532	0.160246425	0.173198967	0.147293883
533	0.16043485	0.173424458	0.147445242
534	0.160638175	0.173670561	0.147605789
535	0.1608229	0.173905904	0.147739896
536	0.1610185	0.17413732	0.14789968
537	0.161212325	0.174360476	0.148064174
538	0.16139575	0.174570275	0.148221225
539	0.16161175	0.174830521	0.148392979
540	0.16184275	0.175106071	0.148579429
541	0.16208515	0.175390845	0.148779455
542	0.162318875	0.175680961	0.148956789
543	0.1625732	0.175985134	0.149161266
544	0.162839925	0.176296125	0.149383725
545	0.16310035	0.176596994	0.149603706
546	0.16337395	0.176912205	0.149835695
547	0.163659725	0.177239706	0.150079744
548	0.163963625	0.177584309	0.150342941
549	0.164296175	0.177962204	0.150630146
550	0.164634375	0.178347504	0.150921246
551	0.1649734	0.178734653	0.151212147
552	0.165324975	0.179134207	0.151515743
553	0.16568795	0.179546545	0.151829355
554	0.16606435	0.17997262	0.15215608
555	0.16646695	0.180421433	0.152512467
556	0.16688145	0.180879498	0.152883402
557	0.167314075	0.181357836	0.153270314
558	0.167778025	0.181876338	0.153679712
559	0.1682278	0.182390177	0.154065423
560	0.168691375	0.182920732	0.154462018
561	0.1691767	0.183474352	0.154879048
562	0.169668725	0.18401354	0.15532391
563	0.1701966	0.184590824	0.155802376
564	0.17075255	0.185199894	0.156305206
565	0.171288025	0.185799182	0.156776868
566	0.171836675	0.186408071	0.157265279
567	0.17240015	0.187031247	0.157769053
568	0.1729838	0.187677373	0.158290227
569	0.173560575	0.188318695	0.158802455
570	0.174146825	0.188972061	0.159321589
571	0.1747482	0.189643399	0.159853001
572	0.175358725	0.190327093	0.160390357
573	0.175973425	0.191006471	0.160940379
574	0.176590675	0.191680936	0.161500414
575	0.17719245	0.192339831	0.162045069
576	0.17782165	0.193035478	0.162607822
577	0.178467325	0.193752072	0.163182578
578	0.1791103	0.194463816	0.163756784
579	0.1797275	0.195158506	0.164296494
580	0.1803401	0.195846622	0.164833578
581	0.180953125	0.196528146	0.165378104
582	0.181539125	0.197176561	0.165901689
583	0.18212765	0.197822462	0.166432838
584	0.182719725	0.198467615	0.166971835
585	0.1832734	0.199072451	0.167474349
586	0.18379435	0.199644869	0.167943831
587	0.184293575	0.200196091	0.168391059
588	0.184760175	0.200714241	0.168806109
589	0.1852533	0.201284186	0.169222414
590	0.18573515	0.201853037	0.169617263
591	0.186175875	0.202385106	0.169966644
592	0.18666525	0.202918804	0.170411696
593	0.187129375	0.203427982	0.170830768
594	0.187566925	0.203916431	0.171217419
595	0.187984225	0.204399892	0.171568558
596	0.188393975	0.20487326	0.17191469
597	0.18879475	0.205337253	0.172252247
598	0.189174375	0.205784584	0.172564166
599	0.189521875	0.206203987	0.172839763
600	0.18986115	0.206616367	0.173105933
601	0.19020005	0.207027103	0.173372997
602	0.1904979	0.207408027	0.173587773
603	0.190778525	0.207765176	0.173791874
604	0.19104615	0.208100429	0.173991871
605	0.191340975	0.208452678	0.174229272
606	0.191601975	0.208770825	0.174433125
607	0.19184465	0.209069373	0.174619927
608	0.192093775	0.209368505	0.174819045
609	0.192328275	0.209655815	0.175000735
610	0.192555675	0.2099333	0.17517805
611	0.192774425	0.210192772	0.175356078
612	0.1929768	0.210444756	0.175508844
613	0.19319235	0.210694613	0.175690087
614	0.19342565	0.210942755	0.175908545
615	0.193614975	0.211172365	0.176057585
616	0.19380535	0.211412423	0.176198277
617	0.193997725	0.211656562	0.176338888
618	0.19419595	0.211885481	0.176506419
619	0.1943532	0.212072656	0.176633744
620	0.194498175	0.212245254	0.176751096
621	0.194648025	0.212418231	0.176877819
622	0.194828475	0.212620892	0.177036058
623	0.19500325	0.212820788	0.177185712
624	0.19516385	0.21301016	0.17731754
625	0.195341475	0.213224638	0.177458312
626	0.19551435	0.213431356	0.177597344
627	0.195678175	0.213627767	0.177728583
628	0.19581545	0.213803868	0.177827032
629	0.195993925	0.214022355	0.177965495
630	0.19616735	0.214240306	0.178094394
631	0.1962922	0.214420167	0.178164233
632	0.19643695	0.214606415	0.178267485
633	0.196570325	0.214786926	0.178353724
634	0.196685525	0.214959339	0.178411711
635	0.196847525	0.215159347	0.178535703
636	0.19699465	0.215347794	0.178641506
637	0.197131275	0.215528521	0.178734029
638	0.197275575	0.215717327	0.178833823
639	0.1974072	0.215890342	0.178924058
640	0.1975276	0.216059966	0.178995234
641	0.197632675	0.216238404	0.179026946
642	0.197757725	0.216416244	0.179099206
643	0.197871825	0.216580308	0.179163342
644	0.197966325	0.216726666	0.179205984
645	0.198073625	0.216899797	0.179247453
646	0.198178475	0.217063598	0.179293352
647	0.19828285	0.217224397	0.179341303
648	0.19840125	0.217423857	0.179378643
649	0.198523	0.217630416	0.179415584
650	0.1986553	0.217845645	0.179464955
651	0.1988161	0.218079637	0.179552563
652	0.198966075	0.218289223	0.179642927
653	0.1991246	0.218488985	0.179760215
654	0.19930345	0.218685636	0.179921264
655	0.199435775	0.21891275	0.1799588
656	0.199570775	0.219161435	0.179980115
657	0.199707025	0.219412045	0.180002005
658	0.19986415	0.219606647	0.180121653
659	0.20006075	0.219846198	0.180275302
660	0.200264825	0.220092931	0.180436719
661	0.20043375	0.220295093	0.180572407
662	0.200597225	0.220502996	0.180691454
663	0.20075825	0.220713214	0.180803286
664	0.200917325	0.220924798	0.180909852
665	0.2010866	0.221147002	0.181026198
666	0.201261825	0.221372577	0.181151073
667	0.2014407	0.221599599	0.181281801
668	0.201599	0.221807634	0.181390366
669	0.20176625	0.222022959	0.181509541
670	0.201934875	0.222241342	0.181628408
671	0.202089475	0.222454652	0.181724298
672	0.20225295	0.222671317	0.181834583
673	0.202417875	0.222890547	0.181945203
674	0.202580975	0.223112247	0.182049703
675	0.202771175	0.223349123	0.182193227
676	0.20294475	0.223574838	0.182314662
677	0.203101675	0.223789725	0.182413625
678	0.20330235	0.224037208	0.182567492
679	0.20347765	0.224264493	0.182690807
680	0.20363995	0.224482584	0.182797316
681	0.203809775	0.224710599	0.182908951
682	0.204012175	0.224954542	0.183069808
683	0.20422065	0.225197366	0.183243934
684	0.204424025	0.225431072	0.183416978
685	0.204534775	0.225539056	0.183530494
686	0.204660025	0.22571346	0.18360659
687	0.20481215	0.225981149	0.183643151
688	0.20498305	0.226242998	0.183723102
689	0.2051997	0.226525494	0.183873906
690	0.205438625	0.22681329	0.18406396
691	0.205666375	0.227085386	0.184247364
692	0.205853475	0.227315839	0.184391111
693	0.206060275	0.227569904	0.184550646
694	0.206335475	0.227901203	0.184769747
695	0.206618925	0.228255557	0.184982293
696	0.206887175	0.228580749	0.185193601
697	0.207138725	0.228872218	0.185405232
698	0.20733195	0.229113796	0.185550104
699	0.20755655	0.22938834	0.18572476
700	0.207804075	0.229689416	0.185918734
701	0.2080563	0.2300077	0.1861049
702	0.208334625	0.230356036	0.186313214
703	0.208614125	0.230697346	0.186530904
704	0.208878875	0.231003394	0.186754356
705	0.2091506	0.231332144	0.186969056
706	0.209424025	0.23166075	0.1871873
707	0.209697875	0.231984625	0.187411125
708	0.2099542	0.232299069	0.187609331
709	0.210224875	0.23262427	0.18782548
710	0.2105027	0.232953081	0.188052319
711	0.210763825	0.233260945	0.188266705
712	0.21101605	0.233562062	0.188470038
713	0.2112549	0.233843769	0.188666031
714	0.21146995	0.234084115	0.188855785
715	0.2115838	0.234192905	0.188974695
716	0.211671875	0.234288937	0.189054813
717	0.2117465	0.234401309	0.189091691
718	0.211946	0.234702822	0.189189178
719	0.212253825	0.235120917	0.189386733
720	0.21262025	0.235582946	0.189657554
721	0.212967675	0.235937362	0.189997988
722	0.213211775	0.236189655	0.190233895
723	0.213420825	0.236425557	0.190416093
724	0.21362605	0.236705939	0.190546161
725	0.213898125	0.2370309	0.19076535
726	0.214184025	0.237362765	0.191005285
727	0.21447485	0.237696295	0.191253405
728	0.21474	0.238026287	0.191453713
729	0.215017325	0.238361388	0.191673262
730	0.215316475	0.238713798	0.191919152
731	0.2157304	0.239202434	0.192258366
732	0.216088775	0.239617746	0.192559804
733	0.216399025	0.239972914	0.192825136
734	0.2166513	0.24025966	0.19304294
735	0.216914875	0.240570059	0.193259691
736	0.217189275	0.24088791	0.19349064
737	0.217476775	0.241209429	0.193744121
738	0.2177736	0.241562961	0.193984239
739	0.218049875	0.24189011	0.19420964
740	0.218305975	0.24219173	0.19442022
741	0.218563175	0.242504135	0.194622215
742	0.21880305	0.24278924	0.19481686
743	0.219034225	0.243057829	0.195010621
744	0.219268525	0.243321038	0.195216012
745	0.2194825	0.243574069	0.195390931
746	0.219700275	0.243830173	0.195570377
747	0.21993435	0.244096788	0.195771912
748	0.220159875	0.244359591	0.195960159
749	0.2203609	0.244599514	0.196122286
750	0.220539625	0.244818085	0.196261165
751	0.2207376	0.24505064	0.19642456
752	0.220930025	0.245274377	0.196585673
753	0.2211227	0.245496065	0.196749335
754	0.221328125	0.245728783	0.196927467
755	0.2215078	0.245943552	0.197072048
756	0.2216767	0.246124377	0.197229023
757	0.221849675	0.246258652	0.197440698
758	0.2217539	0.245985318	0.197522482
759	0.221506925	0.245674559	0.197339291
760	0.2211376	0.245523371	0.196751829
761	0.221295225	0.245731427	0.196859023
762	0.2214977	0.245999516	0.196995884
763	0.221753925	0.246337962	0.197169888
764	0.22207895	0.246762735	0.197395165
765	0.2224514	0.247184453	0.197718347
766	0.2227928	0.247556162	0.198029438
767	0.2231019	0.247888782	0.198315018
768	0.2233468	0.248163042	0.198530558
769	0.22354215	0.248386178	0.198698122
770	0.223690525	0.248560757	0.198820293
771	0.223799675	0.248712065	0.198887285
772	0.223916275	0.248850156	0.198982394
773	0.224035825	0.248981866	0.199089784
774	0.2241463	0.249122338	0.199170262
775	0.224241525	0.249238698	0.199244352
776	0.2243411	0.249358435	0.199323765
777	0.224460925	0.249502308	0.199419542
778	0.224524375	0.249595616	0.199453134
779	0.224595	0.249693688	0.199496312
780	0.2246835	0.249805541	0.199561459
781	0.224731825	0.249870357	0.199593293
782	0.2248048	0.249963424	0.199646176
783	0.224890025	0.25007019	0.19970986
784	0.2249466	0.250142636	0.199750564
785	0.224989925	0.250207683	0.199772167
786	0.2250094	0.250247655	0.199771145
787	0.224982975	0.250232476	0.199733474
788	0.22499525	0.250261812	0.199728688
789	0.225019925	0.250309049	0.199730801
790	0.22505295	0.25037052	0.19973538
791	0.22509125	0.250417142	0.199765358
792	0.2251537	0.250502614	0.199804786
793	0.225216675	0.25059667	0.19983668
794	0.225169425	0.250560405	0.199778445
795	0.225132725	0.250541475	0.199723975
796	0.2251268	0.250557457	0.199696143
797	0.22518965	0.250645049	0.199734251
798	0.225203675	0.250671283	0.199736067
799	0.225202975	0.250687911	0.199718039
800	0.2251932	0.250705857	0.199680543
801	0.225173675	0.250701232	0.199646118
802	0.225173025	0.250718378	0.199627672
803	0.225186075	0.250751828	0.199620322
804	0.2251871	0.250776147	0.199598053
805	0.2252179	0.250828715	0.199607085
806	0.225240475	0.250872049	0.199608901
807	0.225200775	0.250851465	0.199550085
808	0.225116325	0.250792946	0.199439704
809	0.22501555	0.250711041	0.199320059
810	0.22490495	0.250606477	0.199203423
811	0.224815125	0.250511905	0.199118345
812	0.22469005	0.250381368	0.198998732
813	0.22453485	0.250221749	0.198847951
814	0.2244353	0.250131469	0.198739131
815	0.224318375	0.250029744	0.198607006
816	0.224226275	0.249955006	0.198497544
817	0.2242426	0.249986095	0.198499105
818	0.224302625	0.250075324	0.198529926
819	0.2243446	0.250158607	0.198530593
820	0.224343075	0.250212921	0.198473229
821	0.224224925	0.250077521	0.198372329
822	0.224134825	0.24998825	0.1982814
823	0.224101075	0.249980113	0.198222037
824	0.224219825	0.250160032	0.198279618
825	0.224194575	0.25016892	0.19822023
826	0.224104625	0.25009614	0.19811311
827	0.224041425	0.250033093	0.198049757
828	0.223994975	0.250009928	0.197980022
829	0.2239648	0.250009755	0.197919845
830	0.223955325	0.250031754	0.197878896
831	0.22393705	0.250023201	0.197850899
832	0.22391575	0.250019555	0.197811945
833	0.2238939	0.250025356	0.197762444
834	0.2238958	0.250064728	0.197726872
835	0.223886525	0.250087083	0.197685967
836	0.223882525	0.250108385	0.197656665
837	0.223920875	0.25016101	0.19768074
838	0.223860175	0.250121055	0.197599295
839	0.22378075	0.25006776	0.19749374
840	0.22371895	0.250038065	0.197399835
841	0.223718475	0.25005467	0.19738228
842	0.223710225	0.250070249	0.197350201
843	0.2236903	0.250082384	0.197298216
844	0.223716975	0.250133379	0.197300571
845	0.22366895	0.250104403	0.197233497
846	0.22359265	0.250046787	0.197138513
847	0.2235949	0.250079891	0.197109909
848	0.2235682	0.250067734	0.197068666
849	0.2235195	0.250030787	0.197008213
850	0.223445425	0.249972221	0.196918629
851	0.223431025	0.250001441	0.196860609
852	0.2234304	0.250018365	0.196842435
853	0.223437375	0.250008744	0.196866006
854	0.22342635	0.250006448	0.196846252
855	0.223350925	0.249967157	0.196734693
856	0.2232575	0.249922432	0.196592568
857	0.223255425	0.249954493	0.196556357
858	0.2232781	0.250001875	0.196554325
859	0.223296775	0.250042189	0.196551361
860	0.22328615	0.250053287	0.196519013
861	0.2232684	0.250059755	0.196477045
