Wavelength	Mean	Std+	Std-
350	0.1037329	0.113670175	0.093795625
351	0.104242825	0.114200357	0.094285293
352	0.104835125	0.114808266	0.094861984
353	0.105125325	0.115131457	0.095119193
354	0.105576375	0.115604732	0.095548018
355	0.106208325	0.116250277	0.096166373
356	0.1067426	0.11680715	0.09667805
357	0.1071742	0.117264473	0.097083927
358	0.107609075	0.117723595	0.097494555
359	0.1082936	0.118416865	0.098170335
360	0.108785975	0.118938441	0.098633509
361	0.1093605	0.119543686	0.099177314
362	0.110216775	0.120421652	0.100011898
363	0.110732575	0.120972394	0.100492756
364	0.11127125	0.121529735	0.101012765
365	0.111868675	0.122126696	0.101610654
366	0.1124267	0.122708979	0.102144421
367	0.112997325	0.123308493	0.102686157
368	0.1135828	0.123923811	0.103241789
369	0.1141833	0.124541878	0.103824722
370	0.11485475	0.125237012	0.104472488
371	0.11554655	0.125956427	0.105136673
372	0.116221925	0.126662448	0.105781402
373	0.11712005	0.127598674	0.106641426
374	0.11794865	0.128459179	0.107438121
375	0.118660825	0.129194579	0.108127071
376	0.11952285	0.130108011	0.108937689
377	0.120320125	0.130956962	0.109683288
378	0.121091875	0.131778227	0.110405523
379	0.12192155	0.132640599	0.111202501
380	0.1227249	0.133480909	0.111968891
381	0.123532025	0.134324705	0.112739345
382	0.124366625	0.135192517	0.113540733
383	0.1252546	0.136128775	0.114380425
384	0.126204325	0.137139126	0.115269524
385	0.1272233	0.13823107	0.11621553
386	0.12817015	0.139242671	0.117097629
387	0.129065875	0.140198602	0.117933148
388	0.1299192	0.141106668	0.118731732
389	0.130788775	0.142020928	0.119556622
390	0.1315006	0.142781631	0.120219569
391	0.132201675	0.143527671	0.120875679
392	0.1330511	0.144409906	0.121692294
393	0.133899725	0.145300704	0.122498746
394	0.134722525	0.146175138	0.123269912
395	0.13549155	0.147004693	0.123978407
396	0.13639485	0.147955995	0.124833705
397	0.137238125	0.148853689	0.125622561
398	0.13802805	0.149700493	0.126355607
399	0.138809475	0.150529048	0.127089902
400	0.13945895	0.151209625	0.127708275
401	0.140030025	0.151804314	0.128255736
402	0.1405872	0.152384436	0.128789964
403	0.141176375	0.152994084	0.129358666
404	0.141784725	0.153619979	0.129949471
405	0.142426525	0.154276737	0.130576313
406	0.1430813	0.15496251	0.13120009
407	0.143750875	0.155668612	0.131833138
408	0.14443205	0.156389963	0.132474137
409	0.145122475	0.157115393	0.133129557
410	0.145799225	0.157825371	0.133773079
411	0.146467425	0.158524646	0.134410204
412	0.147151525	0.159236936	0.135066114
413	0.147832275	0.159948123	0.135716427
414	0.1485012	0.160647737	0.136354663
415	0.149166	0.161343526	0.136988474
416	0.149837925	0.162043697	0.137632153
417	0.15052615	0.162760873	0.138291427
418	0.1512327	0.163497439	0.138967961
419	0.151986	0.164284942	0.139687058
420	0.152718275	0.165055789	0.140380761
421	0.153443575	0.165820542	0.141066608
422	0.15418745	0.166599388	0.141775512
423	0.15494265	0.167394432	0.142490868
424	0.155724025	0.168213519	0.143234531
425	0.156553075	0.169074552	0.144031598
426	0.157303575	0.169867149	0.144740001
427	0.1581151	0.170720474	0.145509726
428	0.158996325	0.171643438	0.146349212
429	0.15988795	0.172586293	0.147189607
430	0.160823725	0.173577547	0.148069903
431	0.161785575	0.174596849	0.148974301
432	0.16277725	0.175645755	0.149908745
433	0.1637436	0.176675341	0.150811859
434	0.164673225	0.177662202	0.151684248
435	0.16556325	0.178597115	0.152529385
436	0.16646885	0.179543047	0.153394653
437	0.167368175	0.180486791	0.154249559
438	0.1682667	0.1814346	0.1550988
439	0.169183775	0.182403826	0.155963724
440	0.170098725	0.183367632	0.156829818
441	0.17100585	0.184322606	0.157689094
442	0.171905725	0.185273753	0.158537697
443	0.172771375	0.186180955	0.159361795
444	0.173615875	0.187063475	0.160168275
445	0.17444295	0.187926963	0.160958937
446	0.175267325	0.188788306	0.161746344
447	0.17608005	0.189639248	0.162520852
448	0.176881175	0.190479632	0.163282718
449	0.177602875	0.191235525	0.163970225
450	0.17833405	0.191998026	0.164670074
451	0.1790648	0.192757027	0.165372573
452	0.179759525	0.193474667	0.166044383
453	0.18041175	0.194151189	0.166672311
454	0.18105595	0.194821548	0.167290352
455	0.181716575	0.195511388	0.167921762
456	0.18235045	0.196167345	0.168533555
457	0.18296235	0.196798521	0.169126179
458	0.183544725	0.197397835	0.169691615
459	0.184076875	0.197947008	0.170206742
460	0.184624025	0.19850835	0.1707397
461	0.185174375	0.19907113	0.17127762
462	0.18568105	0.199591997	0.171770103
463	0.18614895	0.200068604	0.172229296
464	0.1866122	0.200539675	0.172684725
465	0.18709545	0.201033123	0.173157777
466	0.187560025	0.201503445	0.173616605
467	0.188006275	0.201957424	0.174055126
468	0.188431175	0.202393541	0.174468809
469	0.188908	0.202873559	0.174942441
470	0.189363025	0.20333713	0.17538892
471	0.189800175	0.203786724	0.175813626
472	0.19023875	0.204236957	0.176240543
473	0.190705525	0.204710218	0.176700832
474	0.19117565	0.205186592	0.177164708
475	0.191627525	0.205649886	0.177605164
476	0.192118275	0.206151366	0.178085184
477	0.19261995	0.20666549	0.17857441
478	0.19312915	0.207189991	0.179068309
479	0.193627525	0.207707616	0.179547434
480	0.1941492	0.208243453	0.180054947
481	0.19468495	0.208789443	0.180580457
482	0.195191	0.209306433	0.181075567
483	0.19573035	0.209861626	0.181599074
484	0.1963004	0.210450946	0.182149854
485	0.1969006	0.211074333	0.182726867
486	0.19751045	0.21171147	0.18330943
487	0.198143425	0.212376004	0.183910846
488	0.19880545	0.213074296	0.184536604
489	0.1994603	0.213760858	0.185159742
490	0.200126725	0.214455016	0.185798434
491	0.200797075	0.215150188	0.186443962
492	0.201490175	0.215874134	0.187106216
493	0.202190325	0.216603211	0.187777439
494	0.202902775	0.217346123	0.188459427
495	0.20364605	0.218127226	0.189164874
496	0.204350125	0.218864767	0.189835483
497	0.205064625	0.219609864	0.190519386
498	0.205816525	0.220388884	0.191244166
499	0.206606625	0.221217906	0.191995344
500	0.207391325	0.222041202	0.192741448
501	0.208171375	0.222858907	0.193483843
502	0.208984	0.223709585	0.194258415
503	0.209778725	0.224546219	0.195011231
504	0.2105665	0.225375852	0.195757148
505	0.21137775	0.226221942	0.196533558
506	0.212152125	0.227031347	0.197272903
507	0.2129349	0.227848388	0.198021412
508	0.213755525	0.228702196	0.198808854
509	0.2145736	0.229560186	0.199587014
510	0.2153681	0.230393424	0.200342776
511	0.216144875	0.231207137	0.201082613
512	0.2169606	0.232054396	0.201866804
513	0.2177619	0.232890325	0.202633475
514	0.21855605	0.233721073	0.203391027
515	0.219336925	0.23453897	0.20413488
516	0.220163425	0.235401959	0.204924891
517	0.220998425	0.236278074	0.205718776
518	0.221815725	0.237144637	0.206486813
519	0.222663475	0.238038278	0.207288672
520	0.223515	0.238932105	0.208097895
521	0.224356825	0.239812681	0.208900969
522	0.22515615	0.240648695	0.209663605
523	0.225970025	0.241495465	0.210444585
524	0.2267963	0.242353072	0.211239528
525	0.22762615	0.243215357	0.212036943
526	0.228451075	0.244076181	0.212825969
527	0.229279775	0.244944515	0.213615035
528	0.23012765	0.245837809	0.214417491
529	0.23094885	0.246700658	0.215197042
530	0.2317682	0.24755715	0.21597925
531	0.23258675	0.248408079	0.216765421
532	0.2333823	0.249240437	0.217524163
533	0.2342035	0.250101833	0.218305167
534	0.23503695	0.250978107	0.219095793
535	0.23583705	0.251823415	0.219850685
536	0.2366575	0.252681823	0.220633177
537	0.23747325	0.253532733	0.221413767
538	0.2382689	0.254363344	0.222174456
539	0.239071875	0.255206307	0.222937443
540	0.239880925	0.25605812	0.22370373
541	0.240691125	0.256913567	0.224468683
542	0.241501125	0.257770642	0.225231608
543	0.24231415	0.258626467	0.226001833
544	0.2431248	0.25947709	0.22677251
545	0.243931425	0.260326711	0.227536139
546	0.244724525	0.261162416	0.228286634
547	0.245516525	0.261997419	0.229035631
548	0.24632095	0.262846659	0.229795241
549	0.247134925	0.26370494	0.23056491
550	0.2479354	0.264549672	0.231321128
551	0.24871525	0.265373865	0.232056635
552	0.249507175	0.266212144	0.232802206
553	0.250306175	0.267057992	0.233554358
554	0.251109225	0.267907329	0.234311121
555	0.251894575	0.268733551	0.235055599
556	0.252671075	0.269553034	0.235789116
557	0.25345245	0.270378483	0.236526417
558	0.2542499	0.271220184	0.237279616
559	0.255034225	0.272055026	0.238013424
560	0.255818	0.272888457	0.238747543
561	0.256601025	0.273718127	0.239483923
562	0.257382575	0.274543553	0.240221597
563	0.258151925	0.27535485	0.240949
564	0.25891395	0.27615777	0.24167013
565	0.259679025	0.276966103	0.242391947
566	0.260442725	0.277771327	0.243114123
567	0.261207075	0.278577634	0.243836516
568	0.261968375	0.279384328	0.244552422
569	0.262695375	0.280149565	0.245241185
570	0.263422075	0.280916341	0.245927809
571	0.26415695	0.281696112	0.246617788
572	0.264880925	0.282455877	0.247305973
573	0.2655904	0.283200463	0.247980337
574	0.266288625	0.283933173	0.248644077
575	0.26699145	0.284667246	0.249315654
576	0.267673025	0.285379796	0.249966254
577	0.268351825	0.286090103	0.250613547
578	0.2690429	0.286814117	0.251271683
579	0.269722375	0.287524196	0.251920554
580	0.270399625	0.288229956	0.252569294
581	0.271075775	0.28893206	0.25321949
582	0.271718975	0.289597346	0.253840604
583	0.272359225	0.290257744	0.254460706
584	0.27299795	0.290915109	0.255080791
585	0.273598225	0.291532251	0.255664199
586	0.274192075	0.292138654	0.256245496
587	0.27478265	0.292739353	0.256825947
588	0.275354175	0.293320613	0.257387737
589	0.2759233	0.29390327	0.25794333
590	0.276506025	0.294502237	0.258509813
591	0.27710625	0.295121182	0.259091318
592	0.277686825	0.295705505	0.259668145
593	0.278244725	0.296269292	0.260220158
594	0.278789175	0.296822725	0.260755625
595	0.279373925	0.297412011	0.261335839
596	0.279919475	0.297961219	0.261877731
597	0.280437675	0.298482757	0.262392593
598	0.280934075	0.29898397	0.26288418
599	0.2814461	0.299498008	0.263394192
600	0.281978625	0.300031012	0.263926238
601	0.28253665	0.30058796	0.26448534
602	0.283030825	0.301083574	0.264978076
603	0.283524625	0.301576581	0.265472669
604	0.2840238	0.302072706	0.265974894
605	0.28450315	0.302549201	0.266457099
606	0.284968375	0.3030059	0.26693085
607	0.285429175	0.303454518	0.267403832
608	0.285892875	0.303907986	0.267877764
609	0.286340425	0.304338836	0.268342014
610	0.286786025	0.304767232	0.268804818
611	0.2872315	0.305199154	0.269263846
612	0.287648075	0.305595285	0.269700865
613	0.28804875	0.305973069	0.270124431
614	0.28843575	0.306334861	0.270536639
615	0.288871675	0.306751903	0.270991447
616	0.289327875	0.307188636	0.271467114
617	0.2897921	0.307633728	0.271950472
618	0.290228025	0.308052697	0.272403353
619	0.29064345	0.308441902	0.272844998
620	0.291033725	0.308803707	0.273263743
621	0.29138245	0.309126649	0.273638251
622	0.291814825	0.309534001	0.274095649
623	0.292267825	0.309965091	0.274570559
624	0.292728025	0.310407286	0.275048764
625	0.2931516	0.31081001	0.27549319
626	0.293616675	0.311253574	0.275979776
627	0.294103675	0.311718632	0.276488718
628	0.294558575	0.312152068	0.276965082
629	0.295021825	0.312595791	0.277447859
630	0.2954683	0.313022881	0.277913719
631	0.295869625	0.313403455	0.278335795
632	0.2962388	0.313749365	0.278728235
633	0.2966292	0.31411583	0.27914257
634	0.297054125	0.314516385	0.279591865
635	0.297501675	0.314944941	0.280058409
636	0.2979398	0.315362445	0.280517155
637	0.2983686	0.315768719	0.280968481
638	0.29878385	0.316157785	0.281409915
639	0.29921555	0.316565297	0.281865803
640	0.299661025	0.316987437	0.282334613
641	0.3001256	0.317429603	0.282821597
642	0.300559925	0.317847456	0.283272394
643	0.300983225	0.318251915	0.283714535
644	0.301401925	0.318646889	0.284156961
645	0.3018654	0.319089476	0.284641324
646	0.30231445	0.31952065	0.28510825
647	0.30275505	0.319945717	0.285564383
648	0.30322425	0.320398121	0.286050379
649	0.303634175	0.320793804	0.286474546
650	0.304036025	0.321180385	0.286891665
651	0.304498525	0.321621445	0.287375605
652	0.304913725	0.322016806	0.287810644
653	0.30531855	0.322397568	0.288239532
654	0.305731	0.322778806	0.288683194
655	0.306132325	0.323163427	0.289101223
656	0.306548575	0.323564313	0.289532837
657	0.3069687	0.323968503	0.289968897
658	0.307426625	0.324395409	0.290457841
659	0.307910725	0.324849319	0.290972131
660	0.3084031	0.325313065	0.291493135
661	0.308883925	0.32576828	0.29199957
662	0.309332325	0.326189536	0.292475114
663	0.30977605	0.326606395	0.292945705
664	0.31022385	0.327028446	0.293419254
665	0.310683175	0.327457575	0.293908775
666	0.3111206	0.327866674	0.294374526
667	0.311539075	0.328258889	0.294819261
668	0.311976725	0.328670346	0.295283104
669	0.312416175	0.329082451	0.295749899
670	0.312851825	0.329490038	0.296213612
671	0.3132681	0.329878379	0.296657821
672	0.313694875	0.330277896	0.297111854
673	0.314127675	0.330684703	0.297570647
674	0.3145679	0.331100715	0.298035085
675	0.31499855	0.331503767	0.298493333
676	0.31542105	0.331897643	0.298944457
677	0.31583625	0.332283762	0.299388738
678	0.31625965	0.332679611	0.299839689
679	0.316692025	0.333085915	0.300298135
680	0.31712835	0.33349693	0.30075977
681	0.31755875	0.333901374	0.301216126
682	0.3179761	0.334288336	0.301663864
683	0.318385975	0.334667012	0.302104938
684	0.31879285	0.335043061	0.302542639
685	0.319142725	0.335356607	0.302928843
686	0.319506725	0.335689073	0.303324377
687	0.31988805	0.336046234	0.303729866
688	0.320308675	0.336447331	0.304170019
689	0.3207516	0.336865905	0.304637295
690	0.321205475	0.337293103	0.305117847
691	0.321674725	0.337736327	0.305613123
692	0.3221483	0.338183409	0.306113191
693	0.32260785	0.338615038	0.306600662
694	0.323037525	0.339013802	0.307061248
695	0.3234513	0.339397935	0.307504665
696	0.323868525	0.339785815	0.307951235
697	0.324294775	0.340182221	0.308407329
698	0.32470715	0.340564999	0.308849301
699	0.325133325	0.340964437	0.309302213
700	0.3255629	0.341369307	0.309756493
701	0.325952525	0.341734381	0.310170669
702	0.326363925	0.342117059	0.310610791
703	0.326781575	0.342504825	0.311058325
704	0.32720115	0.342895197	0.311507103
705	0.3276105	0.343277408	0.311943592
706	0.32802525	0.34366346	0.31238704
707	0.3284488	0.344056001	0.312841599
708	0.328872	0.344453178	0.313290822
709	0.32927165	0.34482356	0.31371974
710	0.3296599	0.345181006	0.314138794
711	0.330078825	0.345572839	0.314584811
712	0.330496375	0.345960568	0.315032182
713	0.330914075	0.346347847	0.315480303
714	0.331335525	0.346740663	0.315930387
715	0.331761475	0.347135002	0.316387948
716	0.332206775	0.347549336	0.316864214
717	0.332678275	0.347992384	0.317364166
718	0.33305955	0.348346467	0.317772633
719	0.333434325	0.348693387	0.318175263
720	0.333796325	0.34902829	0.31856436
721	0.334205675	0.34940602	0.31900533
722	0.334646925	0.34981609	0.31947776
723	0.335093475	0.35023276	0.31995419
724	0.33548505	0.350599269	0.320370831
725	0.3358895	0.350977785	0.320801215
726	0.336299425	0.351357068	0.321241782
727	0.3367185	0.351738515	0.321698485
728	0.33712645	0.352121611	0.322131289
729	0.337528325	0.352493472	0.322563178
730	0.337924925	0.352856882	0.322992968
731	0.338352525	0.353258789	0.323446261
732	0.3387674	0.353647875	0.323886925
733	0.339179475	0.354033172	0.324325778
734	0.3396101	0.354433133	0.324787067
735	0.34002125	0.354818645	0.325223855
736	0.3404215	0.355189711	0.325653289
737	0.340811775	0.355543728	0.326079822
738	0.341221075	0.355925677	0.326516473
739	0.34162545	0.35630226	0.32694864
740	0.342028275	0.356676128	0.327380422
741	0.34248015	0.357096766	0.327863534
742	0.34291265	0.357499534	0.328325766
743	0.343330475	0.357887977	0.328772973
744	0.343738275	0.35826389	0.32921266
745	0.34415535	0.358650799	0.329659901
746	0.344585325	0.359051964	0.330118686
747	0.34503575	0.359474444	0.330597056
748	0.3454293	0.359837551	0.331021049
749	0.345852025	0.360229051	0.331474999
750	0.34630005	0.360645654	0.331954446
751	0.3466914	0.361004845	0.332377955
752	0.34711785	0.361400962	0.332834738
753	0.347557625	0.361811316	0.333303934
754	0.347976	0.362199017	0.333752983
755	0.34841745	0.362613044	0.334221856
756	0.348839	0.363005244	0.334672756
757	0.349231425	0.363360883	0.335101967
758	0.349252375	0.363329089	0.335175661
759	0.34926225	0.363284179	0.335240321
760	0.349339125	0.363324913	0.335353337
761	0.349746775	0.363713142	0.335780408
762	0.350242475	0.364182278	0.336302672
763	0.350813875	0.364724175	0.336903575
764	0.351407925	0.365297282	0.337518568
765	0.35203945	0.365910997	0.338167903
766	0.352622725	0.366473058	0.338772392
767	0.353168675	0.366987977	0.339349373
768	0.353684925	0.367474244	0.339895606
769	0.35415605	0.367918119	0.340393981
770	0.3545858	0.368322574	0.340849026
771	0.355006475	0.368711355	0.341301595
772	0.355390225	0.369070028	0.341710422
773	0.355752325	0.36940916	0.34209549
774	0.356118775	0.369741321	0.342496229
775	0.356539525	0.37012787	0.34295118
776	0.3569599	0.370514992	0.343404808
777	0.35734295	0.370866087	0.343819813
778	0.3577385	0.371236742	0.344240258
779	0.3581531	0.371620617	0.344685583
780	0.358587425	0.37201635	0.3451585
781	0.358966525	0.372369353	0.345563697
782	0.35936005	0.372734333	0.345985767
783	0.359760575	0.373104588	0.346416562
784	0.360132925	0.373446752	0.346819098
785	0.36050595	0.373793007	0.347218893
786	0.360895	0.374155247	0.347634753
787	0.36131885	0.374548804	0.348088896
788	0.3617006	0.374900532	0.348500668
789	0.3620627	0.375233821	0.348891579
790	0.36240705	0.375550608	0.349263492
791	0.362785625	0.375901782	0.349669468
792	0.363131875	0.37622014	0.35004361
793	0.36346325	0.376523041	0.350403459
794	0.363859225	0.376888513	0.350829937
795	0.36424385	0.377248426	0.351239274
796	0.36461125	0.37759102	0.35163148
797	0.36494595	0.3778935	0.3519984
798	0.36529435	0.378202916	0.352385784
799	0.3656545	0.378533939	0.352775061
800	0.366022525	0.378889621	0.353155429
801	0.366375125	0.379209454	0.353540796
802	0.366695075	0.379496523	0.353893627
803	0.36698985	0.379757908	0.354221792
804	0.36727955	0.380009553	0.354549547
805	0.3676269	0.380332288	0.354921512
806	0.367995675	0.38067955	0.3553118
807	0.3683533	0.381006792	0.355699808
808	0.368682925	0.38131363	0.35605222
809	0.36901875	0.38163097	0.35640653
810	0.36936935	0.381968063	0.356770637
811	0.3697111	0.38229135	0.35713085
812	0.370073975	0.382642075	0.357505875
813	0.3704542	0.383013832	0.357894568
814	0.370762	0.383291229	0.358232771
815	0.37107215	0.383582052	0.358562248
816	0.3713624	0.383852432	0.358872368
817	0.37158015	0.384032983	0.359127317
818	0.371847975	0.384263437	0.359432513
819	0.37213755	0.384522163	0.359752937
820	0.3724455	0.384809223	0.360081777
821	0.372803075	0.385150791	0.360455359
822	0.373129075	0.385454255	0.360803895
823	0.3734027	0.385699567	0.361105833
824	0.3736668	0.385941848	0.361391752
825	0.3739621	0.386216149	0.361708051
826	0.3742655	0.386497872	0.362033128
827	0.3745195	0.386730071	0.362308929
828	0.374786225	0.386961719	0.362610731
829	0.37507535	0.387220466	0.362930234
830	0.375399425	0.387528342	0.363270508
831	0.37572595	0.387836429	0.363615471
832	0.3760005	0.388089491	0.363911509
833	0.376222225	0.38828813	0.36415632
834	0.376483675	0.388539944	0.364427406
835	0.376744275	0.388776664	0.364711886
836	0.376991425	0.388993447	0.364989403
837	0.3771863	0.38916458	0.36520802
838	0.377444825	0.389402829	0.365486821
839	0.37769775	0.389633383	0.365762117
840	0.377905675	0.389812611	0.365998739
841	0.378180375	0.390074209	0.366286541
842	0.37844445	0.390322857	0.366566043
843	0.378689375	0.390548139	0.366830611
844	0.37890295	0.390745924	0.367059976
845	0.37913615	0.390962473	0.367309827
846	0.379371225	0.391179909	0.367562541
847	0.379559925	0.39134791	0.36777194
848	0.379789	0.391565914	0.368012086
849	0.380018325	0.391780897	0.368255753
850	0.38020955	0.391944205	0.368474895
851	0.380412475	0.392130674	0.368694276
852	0.38062785	0.392331961	0.368923739
853	0.380861375	0.392551935	0.369170815
854	0.38104825	0.392713273	0.369383227
855	0.3813276	0.392982557	0.369672643
856	0.381644025	0.393294527	0.369993523
857	0.381919525	0.393542751	0.370296299
858	0.382164475	0.393781491	0.370547459
859	0.382394875	0.394007189	0.370782561
860	0.382611725	0.394206149	0.371017301
