Wavelength	Mean	Std+	Std-
350	0.0739314	0.10024799	0.04761481
351	0.07431595	0.100708435	0.047923465
352	0.07472215	0.101219777	0.048224523
353	0.0750497	0.101596911	0.048502489
354	0.07536905	0.101984513	0.048753587
355	0.0756924	0.102397126	0.048987674
356	0.07607575	0.102814588	0.049336912
357	0.07638445	0.103206797	0.049562103
358	0.0767176	0.103643754	0.049791446
359	0.0773186	0.104319969	0.050317231
360	0.0777683	0.104898207	0.050638393
361	0.07820925	0.105482413	0.050936087
362	0.07872775	0.106144362	0.051311138
363	0.07913995	0.106704546	0.051575354
364	0.0795223	0.107213499	0.051831101
365	0.0798744	0.10766588	0.05208292
366	0.08006525	0.107917378	0.052213122
367	0.080509	0.108439967	0.052578033
368	0.08107895	0.109094326	0.053063574
369	0.0814994	0.10957075	0.05342805
370	0.08188335	0.110004295	0.053762405
371	0.082285	0.110458043	0.054111957
372	0.082746	0.110980148	0.054511852
373	0.08301855	0.111365304	0.054671796
374	0.0834093	0.111874334	0.054944266
375	0.08396735	0.112550884	0.055383816
376	0.0842809	0.113026923	0.055534877
377	0.08476215	0.113632972	0.055891328
378	0.08536475	0.11433445	0.05639505
379	0.08595495	0.115020297	0.056889603
380	0.086346	0.115477745	0.057214255
381	0.0866746	0.115858936	0.057490264
382	0.08703195	0.116262784	0.057801116
383	0.08743505	0.116747627	0.058122473
384	0.08801255	0.117423277	0.058601823
385	0.08879565	0.118319253	0.059272047
386	0.0891649	0.118896594	0.059433206
387	0.0896313	0.119546898	0.059715702
388	0.09016595	0.120236007	0.060095893
389	0.0907095	0.120871155	0.060547845
390	0.09106395	0.121232842	0.060895058
391	0.0914246	0.121594088	0.061255112
392	0.09199485	0.122229557	0.061760143
393	0.0924039	0.122731086	0.062076714
394	0.09286475	0.123289553	0.062439947
395	0.09341045	0.12393048	0.06289042
396	0.0936976	0.124389576	0.063005624
397	0.0940813	0.124955624	0.063206976
398	0.09453325	0.125581522	0.063484978
399	0.0950429	0.126192195	0.063893605
400	0.0954707	0.126662322	0.064279078
401	0.0958487	0.127058099	0.064639301
402	0.0962167	0.127442283	0.064991117
403	0.0965143	0.127711094	0.065317506
404	0.0968521	0.12801917	0.06568503
405	0.09727005	0.128416671	0.066123429
406	0.09760575	0.128773827	0.066437673
407	0.0979944	0.129205439	0.066783361
408	0.0984259	0.129695743	0.067156057
409	0.09885995	0.130188882	0.067531018
410	0.09922055	0.130611254	0.067829846
411	0.0995711	0.131021471	0.068120729
412	0.09999785	0.131500056	0.068495644
413	0.1003739	0.131912219	0.068835581
414	0.10075905	0.132322333	0.069195767
415	0.1011818	0.132758194	0.069605406
416	0.1015139	0.133112561	0.069915239
417	0.1018773	0.133498718	0.070255882
418	0.1022703	0.133916884	0.070623716
419	0.10264495	0.134334347	0.070955553
420	0.1030313	0.134751484	0.071311116
421	0.1034202	0.135167017	0.071673383
422	0.10380295	0.135582329	0.072023571
423	0.10423385	0.136044469	0.072423231
424	0.1046264	0.136463478	0.072789322
425	0.1049397	0.136795981	0.073083419
426	0.1052488	0.137101262	0.073396338
427	0.1056208	0.137481089	0.073760511
428	0.1060521	0.137934547	0.074169653
429	0.1064107	0.138325103	0.074496297
430	0.10681415	0.138783097	0.074845203
431	0.1072507	0.139289793	0.075211607
432	0.10772835	0.139851307	0.075605393
433	0.10814675	0.140362738	0.075930762
434	0.1085283	0.140823174	0.076233426
435	0.1088777	0.141223396	0.076532004
436	0.1092166	0.141537033	0.076896167
437	0.10953995	0.141837235	0.077242665
438	0.10985645	0.142140538	0.077572362
439	0.11024815	0.142543867	0.077952433
440	0.1106107	0.142923801	0.078297599
441	0.1109687	0.143306994	0.078630406
442	0.1113897	0.143772792	0.079006608
443	0.11176315	0.144181692	0.079344608
444	0.11210905	0.144547505	0.079670595
445	0.11243215	0.144866884	0.079997416
446	0.1127542	0.145201336	0.080307064
447	0.11308635	0.145558999	0.080613701
448	0.1134351	0.145944794	0.080925406
449	0.1138677	0.146401965	0.081333435
450	0.1142209	0.146769632	0.081672168
451	0.11452535	0.147079232	0.081971468
452	0.1148335	0.147378925	0.082288075
453	0.1151722	0.147718201	0.082626199
454	0.1155239	0.148079297	0.082968503
455	0.11588255	0.148460483	0.083304617
456	0.1162055	0.148830156	0.083580844
457	0.11656735	0.149240111	0.083894589
458	0.1169767	0.149694242	0.084259158
459	0.1172486	0.149977305	0.084519895
460	0.11756875	0.150310044	0.084827456
461	0.11792505	0.15068057	0.08516953
462	0.1182913	0.151065337	0.085517263
463	0.11860895	0.151394034	0.085823866
464	0.11891895	0.151709952	0.086127948
465	0.11925275	0.152044308	0.086461192
466	0.11957105	0.152371993	0.086770107
467	0.11988115	0.152701919	0.087060381
468	0.12018255	0.153035122	0.087329978
469	0.1204933	0.153381294	0.087605306
470	0.12083335	0.153751515	0.087915185
471	0.1211894	0.154133921	0.088244879
472	0.12151675	0.15448747	0.08854603
473	0.12183335	0.154828844	0.088837856
474	0.1221476	0.155162827	0.089132373
475	0.12246785	0.155490602	0.089445098
476	0.1227585	0.155794404	0.089722596
477	0.12305205	0.156103868	0.090000232
478	0.1233573	0.156427593	0.090287007
479	0.12368715	0.156772905	0.090601395
480	0.12402695	0.157120892	0.090933008
481	0.12436795	0.157461491	0.091274409
482	0.1246604	0.157733076	0.091587724
483	0.12497375	0.158025988	0.091921512
484	0.12527905	0.15831795	0.09224015
485	0.1255252	0.158570334	0.092480066
486	0.12585665	0.158935734	0.092777566
487	0.12623705	0.159369777	0.093104323
488	0.12666245	0.15986948	0.09345542
489	0.12695585	0.160226026	0.093685674
490	0.1272689	0.160567948	0.093969852
491	0.12759765	0.160896218	0.094299082
492	0.1279271	0.161212952	0.094641248
493	0.1282267	0.161524431	0.094928969
494	0.1285387	0.16185806	0.09521934
495	0.1289347	0.16226986	0.09559954
496	0.1292404	0.162581893	0.095898907
497	0.1295413	0.162880167	0.096202433
498	0.1298707	0.163196372	0.096545028
499	0.1301858	0.16351415	0.09685745
500	0.13051985	0.163859821	0.097179879
501	0.13086975	0.164229718	0.097509782
502	0.13119905	0.164588442	0.097809658
503	0.131546	0.164969164	0.098122836
504	0.13188985	0.165344236	0.098435464
505	0.1322012	0.165670794	0.098731606
506	0.13255185	0.166028845	0.099074855
507	0.13290495	0.166388326	0.099421574
508	0.13324815	0.166739048	0.099757252
509	0.13362555	0.167131099	0.100120001
510	0.1339713	0.167497079	0.100445521
511	0.13428665	0.167836842	0.100736458
512	0.1346355	0.168194793	0.101076207
513	0.1350033	0.168562247	0.101444353
514	0.135375	0.168929347	0.101820653
515	0.13571245	0.169264918	0.102159982
516	0.1361277	0.169706422	0.102548978
517	0.13655365	0.170177457	0.102929843
518	0.1369548	0.170643712	0.103265888
519	0.1373443	0.171118633	0.103569967
520	0.1377596	0.171600797	0.103918403
521	0.13819595	0.172079804	0.104312096
522	0.13858575	0.17247134	0.10470016
523	0.1389435	0.172829123	0.105057877
524	0.1392916	0.173179151	0.105404049
525	0.1396713	0.173572785	0.105769815
526	0.14007685	0.17399961	0.10615409
527	0.14049135	0.174446949	0.106535751
528	0.14091345	0.17491987	0.10690703
529	0.1413378	0.175393539	0.107282061
530	0.141737	0.17581353	0.10766047
531	0.14210715	0.17617274	0.10804156
532	0.14249045	0.176557204	0.108423696
533	0.14287965	0.176966979	0.108792321
534	0.14328335	0.177405589	0.109161111
535	0.1437321	0.177894791	0.109569409
536	0.144136	0.178312658	0.109959342
537	0.14452785	0.178707664	0.110348036
538	0.1449301	0.179108894	0.110751306
539	0.14530705	0.179515258	0.111098842
540	0.14570155	0.179944884	0.111458216
541	0.14611905	0.180399882	0.111838218
542	0.1465434	0.180877005	0.112209795
543	0.1469821	0.181354866	0.112609334
544	0.1474167	0.181817129	0.113016271
545	0.1477816	0.182199895	0.113363305
546	0.14817765	0.182611399	0.113743901
547	0.1485791	0.183028548	0.114129652
548	0.1489655	0.183433136	0.114497864
549	0.1493791	0.183872262	0.114885938
550	0.14980015	0.184317932	0.115282368
551	0.15022485	0.184764456	0.115685244
552	0.1506277	0.185193495	0.116061905
553	0.1510487	0.185639117	0.116458283
554	0.151476	0.186087466	0.116864534
555	0.1518564	0.186473927	0.117238873
556	0.1522331	0.186857931	0.117608269
557	0.1526255	0.187263816	0.117987184
558	0.1530614	0.187727771	0.118395029
559	0.15349515	0.188206564	0.118783736
560	0.15392195	0.188679171	0.119164729
561	0.1543375	0.189137614	0.119537386
562	0.1547492	0.189571929	0.119926471
563	0.15515885	0.19000175	0.12031595
564	0.1555674	0.190430588	0.120704212
565	0.15597325	0.19086789	0.12107861
566	0.1563883	0.191315484	0.121461116
567	0.15681305	0.191772754	0.121853346
568	0.1572509	0.192240275	0.122261525
569	0.1576587	0.192675489	0.122641911
570	0.15807205	0.193125823	0.123018277
571	0.15850175	0.193607502	0.123395998
572	0.1589288	0.194085094	0.123772506
573	0.15935365	0.194545036	0.124162264
574	0.1597795	0.194991821	0.124567179
575	0.1602281	0.195456852	0.124999348
576	0.16065005	0.195918694	0.125381406
577	0.161068	0.196388372	0.125747628
578	0.16150795	0.196878546	0.126137354
579	0.1619389	0.197361783	0.126516017
580	0.16235495	0.197832231	0.126877669
581	0.16274885	0.19828312	0.12721458
582	0.16317805	0.198740421	0.127615679
583	0.16358375	0.199173329	0.127994171
584	0.16396805	0.199585398	0.128350702
585	0.16435655	0.200000792	0.128712308
586	0.16471295	0.20037085	0.12905505
587	0.1650515	0.200717418	0.129385582
588	0.16537695	0.201056298	0.129697602
589	0.16577005	0.201501794	0.130038306
590	0.1661796	0.201977214	0.130381986
591	0.16657865	0.202446105	0.130711195
592	0.1669363	0.202830382	0.131042218
593	0.1673351	0.203262181	0.131408019
594	0.16777645	0.203748798	0.131804102
595	0.16815565	0.204199193	0.132112107
596	0.16855985	0.204668929	0.132450771
597	0.16898455	0.205156937	0.132812163
598	0.1694289	0.205667767	0.133190033
599	0.1698697	0.206189707	0.133549693
600	0.1703184	0.206726313	0.133910487
601	0.17078005	0.207279991	0.134280109
602	0.17120885	0.207813226	0.134604474
603	0.17164785	0.20834903	0.13494667
604	0.1720998	0.20888685	0.13531275
605	0.1725121	0.209371286	0.135652914
606	0.17291675	0.209854383	0.135979117
607	0.17332555	0.210343272	0.136307828
608	0.173758	0.210841666	0.136674334
609	0.17416875	0.211325521	0.137011979
610	0.17457445	0.211798196	0.137350704
611	0.17497825	0.212249426	0.137707074
612	0.1753851	0.212695193	0.138075007
613	0.17580145	0.213153979	0.138448921
614	0.17622615	0.213626494	0.138825806
615	0.1765674	0.214018369	0.139116431
616	0.1769648	0.21447423	0.13945537
617	0.17740185	0.214972792	0.139830908
618	0.1778431	0.215461344	0.140224856
619	0.1782504	0.215898872	0.140601928
620	0.17862615	0.216299471	0.140952829
621	0.1789564	0.216656358	0.141256442
622	0.17931475	0.217057628	0.141571872
623	0.1796772	0.217463359	0.141891041
624	0.18003775	0.217864427	0.142211073
625	0.18044395	0.218326525	0.142561375
626	0.18081965	0.218749986	0.142889314
627	0.18118215	0.219157199	0.143207101
628	0.1816046	0.219640685	0.143568515
629	0.1820928	0.220197136	0.143988464
630	0.18256575	0.220737067	0.144394433
631	0.18294565	0.221174602	0.144716698
632	0.1833188	0.221603359	0.145034241
633	0.1837011	0.222041372	0.145360828
634	0.184097	0.222493009	0.145700991
635	0.1845212	0.222986257	0.146056143
636	0.18496335	0.223495051	0.146431649
637	0.1854181	0.224015798	0.146820402
638	0.1858685	0.224539529	0.147197471
639	0.1863473	0.22510282	0.14759178
640	0.18682395	0.22567457	0.14797333
641	0.18726505	0.22622642	0.14830368
642	0.18770105	0.226765038	0.148637062
643	0.188131	0.227292145	0.148969855
644	0.18855695	0.227810901	0.149302999
645	0.18895835	0.228312942	0.149603758
646	0.18939505	0.228859357	0.149930743
647	0.18986735	0.22945222	0.15028248
648	0.1903897	0.230122656	0.150656744
649	0.1909049	0.230800936	0.151008864
650	0.19141425	0.231474742	0.151353758
651	0.1919235	0.232134284	0.151712716
652	0.192453	0.232791112	0.152114888
653	0.1929671	0.233411337	0.152522863
654	0.19345965	0.233986795	0.152932505
655	0.1939481	0.234640774	0.153255426
656	0.19451015	0.235415251	0.153605049
657	0.1951118	0.236248391	0.153975209
658	0.19567655	0.236946419	0.154406681
659	0.19621135	0.237595302	0.154827398
660	0.19673225	0.238226593	0.155237907
661	0.19725285	0.238874135	0.155631565
662	0.19775125	0.239487065	0.156015435
663	0.19824645	0.240097831	0.156395069
664	0.19874405	0.240717803	0.156770297
665	0.19924735	0.241339991	0.157154709
666	0.1997581	0.24197589	0.15754031
667	0.20027595	0.242624167	0.157927733
668	0.2007811	0.243244295	0.158317905
669	0.20127465	0.243859681	0.158689619
670	0.20176345	0.244476329	0.159050571
671	0.2022547	0.245101234	0.159408166
672	0.2027625	0.24574133	0.15978367
673	0.20327835	0.246387875	0.160168825
674	0.2038028	0.247040044	0.160565556
675	0.20432275	0.247698052	0.160947448
676	0.2048448	0.248356995	0.161332605
677	0.2053675	0.249014201	0.161720799
678	0.20585965	0.249637963	0.162081337
679	0.20638315	0.250303272	0.162463028
680	0.2069264	0.250994621	0.162858179
681	0.20747465	0.251691595	0.163257705
682	0.20801145	0.25235986	0.16366304
683	0.2085272	0.252988206	0.164066194
684	0.2090149	0.253562767	0.164467033
685	0.20937915	0.253971561	0.164786739
686	0.20983945	0.254555559	0.165123341
687	0.21042225	0.255361759	0.165482741
688	0.21106985	0.256219213	0.165920487
689	0.2117333	0.257056157	0.166410443
690	0.21237685	0.257843096	0.166910604
691	0.2129262	0.258510189	0.167342211
692	0.21349775	0.259200335	0.167795165
693	0.2141158	0.259961179	0.168270421
694	0.2148113	0.26084945	0.16877315
695	0.21558765	0.261818724	0.169356576
696	0.21631265	0.262710624	0.169914676
697	0.2169769	0.263513479	0.170440321
698	0.2175913	0.264254587	0.170928013
699	0.2182138	0.26502121	0.17140639
700	0.21886	0.265828499	0.171891501
701	0.2195963	0.266750589	0.172442011
702	0.2203481	0.267694173	0.173002027
703	0.2210787	0.268601376	0.173556024
704	0.22176225	0.269424353	0.174100147
705	0.22243595	0.270265959	0.174605941
706	0.22313145	0.271128915	0.175133985
707	0.22385625	0.272016069	0.175696431
708	0.2245306	0.272846975	0.176214225
709	0.2251918	0.273670171	0.176713429
710	0.22584865	0.274492705	0.177204595
711	0.226536	0.275345798	0.177726202
712	0.22712215	0.276079989	0.178164311
713	0.22764965	0.276728679	0.178570621
714	0.2281323	0.277281038	0.178983562
715	0.22834505	0.277482359	0.179207741
716	0.2285255	0.277670858	0.179380142
717	0.2287287	0.27793629	0.17952111
718	0.2293766	0.278816085	0.179937115
719	0.2302504	0.279981354	0.180519446
720	0.2311906	0.281210345	0.181170855
721	0.2318688	0.282005261	0.181732339
722	0.2323311	0.282538048	0.182124152
723	0.2327675	0.283056471	0.182478529
724	0.2333274	0.283776152	0.182878648
725	0.23391135	0.284523018	0.183299682
726	0.234497	0.285270391	0.183723609
727	0.2350868	0.286021351	0.184152249
728	0.235684	0.286792024	0.184575976
729	0.23634825	0.287637502	0.185058998
730	0.23706875	0.288548808	0.185588692
731	0.2378693	0.289586973	0.186151627
732	0.23861695	0.290538529	0.186695371
733	0.23930845	0.29140133	0.18721557
734	0.2399289	0.292147303	0.187710497
735	0.240477	0.292861244	0.188092756
736	0.24105145	0.293603872	0.188499028
737	0.2416924	0.294402881	0.188981919
738	0.2422925	0.295158969	0.189426031
739	0.2429016	0.295928956	0.189874244
740	0.24351595	0.296708641	0.190323259
741	0.24409565	0.29745841	0.19073289
742	0.2446484	0.298165131	0.191131669
743	0.2451927	0.298856039	0.191529361
744	0.24575875	0.299573847	0.191943653
745	0.24630355	0.300269068	0.192338032
746	0.24684215	0.300952407	0.192731893
747	0.247382	0.301627964	0.193136036
748	0.24793405	0.302332927	0.193535173
749	0.24849545	0.30304485	0.19394605
750	0.24905745	0.303754486	0.194360414
751	0.24955755	0.304414026	0.194701074
752	0.25008145	0.305091736	0.195071164
753	0.25062595	0.305785881	0.195466019
754	0.2512029	0.306508638	0.195897162
755	0.25178415	0.307245496	0.196322804
756	0.2522935	0.307861044	0.196725956
757	0.2526902	0.308264585	0.197115815
758	0.25230735	0.307534301	0.197080399
759	0.25189105	0.306941682	0.196840418
760	0.2518274	0.3072252	0.1964296
761	0.25271105	0.308418533	0.197003567
762	0.2535805	0.309562047	0.197598953
763	0.25453085	0.310808706	0.198252994
764	0.2555943	0.312241506	0.198947094
765	0.2565719	0.313516935	0.199626865
766	0.2573827	0.314556836	0.200208564
767	0.2580512	0.31539827	0.20070413
768	0.25872755	0.316240523	0.201214577
769	0.2593567	0.31702918	0.20168422
770	0.25993915	0.317766166	0.202112134
771	0.26046935	0.318448365	0.202490335
772	0.2610267	0.319152942	0.202900458
773	0.26159415	0.319865213	0.203323087
774	0.26211745	0.320533263	0.203701637
775	0.2626442	0.321199373	0.204089027
776	0.2631792	0.321872669	0.204485731
777	0.2637325	0.322566056	0.204898944
778	0.2642544	0.323245513	0.205263287
779	0.26479265	0.323943054	0.205642246
780	0.26535385	0.324662334	0.206045366
781	0.265847	0.325304132	0.206389868
782	0.2663679	0.325972606	0.206763194
783	0.26690675	0.326657479	0.207156021
784	0.26742125	0.327310466	0.207532034
785	0.2679546	0.32798861	0.20792059
786	0.2684715	0.32865022	0.20829278
787	0.26892545	0.329241703	0.208609197
788	0.26944705	0.329894459	0.208999641
789	0.26996935	0.330558229	0.209380471
790	0.2704764	0.331221068	0.209731732
791	0.2710708	0.331971255	0.210170345
792	0.27170145	0.332772445	0.210630455
793	0.27233545	0.333582445	0.211088455
794	0.2728291	0.334219464	0.211438736
795	0.2733108	0.334850665	0.211770935
796	0.27381595	0.335512506	0.212119394
797	0.27439315	0.336258102	0.212528198
798	0.2749134	0.336920904	0.212905896
799	0.27541655	0.337558884	0.213274216
800	0.27590125	0.338172059	0.213630441
801	0.2764581	0.338881065	0.214035135
802	0.27702425	0.339602419	0.214446081
803	0.27760665	0.340344977	0.214868323
804	0.27824855	0.341160951	0.215336149
805	0.2788376	0.341914326	0.215760874
806	0.2793812	0.342610777	0.216151623
807	0.27986615	0.343227838	0.216504462
808	0.2803396	0.343824601	0.216854599
809	0.28080225	0.344401203	0.217203297
810	0.2812485	0.344948159	0.217548841
811	0.28147325	0.345223863	0.217722637
812	0.2816566	0.345445123	0.217868077
813	0.2818279	0.345647941	0.218007859
814	0.2821433	0.346022495	0.218264105
815	0.28252365	0.34651561	0.21853169
816	0.2830095	0.347154388	0.218864612
817	0.28372	0.348055522	0.219384478
818	0.2845583	0.349114941	0.220001659
819	0.28534775	0.350124225	0.220571275
820	0.2860388	0.351029042	0.221048558
821	0.2862899	0.351273111	0.221306689
822	0.2867246	0.351805925	0.221643275
823	0.2873583	0.35265226	0.22206434
824	0.288323	0.353914656	0.222731344
825	0.28900945	0.354774744	0.223244156
826	0.28953965	0.355415701	0.223663599
827	0.28991765	0.355876969	0.223958331
828	0.29046205	0.356581761	0.224342339
829	0.29110945	0.35741095	0.22480795
830	0.2918655	0.358351678	0.225379322
831	0.29252025	0.359178671	0.225861829
832	0.29320935	0.360045643	0.226373057
833	0.29392495	0.360943486	0.226906414
834	0.29454715	0.361759209	0.227335091
835	0.295201	0.362590361	0.227811639
836	0.29585285	0.363410494	0.228295206
837	0.2964244	0.364147406	0.228701394
838	0.29697495	0.364851345	0.229098555
839	0.29754805	0.365573556	0.229522544
840	0.2981751	0.366348138	0.230002062
841	0.29873805	0.367059749	0.230416351
842	0.2993004	0.367773302	0.230827498
843	0.29986625	0.368492776	0.231239724
844	0.30041785	0.369198623	0.231637077
845	0.301017	0.369945762	0.232088238
846	0.3016196	0.370695406	0.232543794
847	0.3021055	0.371339639	0.232871361
848	0.3026126	0.371949589	0.233275611
849	0.3031545	0.372594149	0.233714851
850	0.3037342	0.373309609	0.234158791
851	0.30421265	0.373951612	0.234473688
852	0.30469585	0.374555235	0.234836465
853	0.30521115	0.375139543	0.235282757
854	0.3057993	0.375846191	0.235752409
855	0.3063594	0.376592512	0.236126288
856	0.3069078	0.377349131	0.236466469
857	0.30758245	0.378171703	0.236993197
858	0.3081144	0.378827543	0.237401257
859	0.3086198	0.379456498	0.237783102
860	0.30916695	0.380142021	0.238191879
861	0.3097275	0.380850369	0.238604631
862	0.31027875	0.381554245	0.239003255
863	0.31082085	0.382254417	0.239387283
864	0.31125435	0.382784883	0.239723817
865	0.3117422	0.383350268	0.240134132
866	0.3122774	0.383962836	0.240591964
867	0.3128425	0.384679133	0.241005867
868	0.31344885	0.385446055	0.241451645
869	0.3140301	0.386181763	0.241878437
870	0.31453525	0.386824382	0.242246118
871	0.31507035	0.387507019	0.242633681
