Wavelength	Mean	Std+	Std-
350	0.04460015	0.069810642	0.019389658
351	0.04468305	0.070063306	0.019302794
352	0.0451182	0.070649757	0.019586643
353	0.0453767	0.071048231	0.019705169
354	0.0455825	0.071414115	0.019750885
355	0.0457521	0.071763489	0.019740711
356	0.04592185	0.07208142	0.01976228
357	0.04621145	0.072524689	0.019898211
358	0.04653225	0.073016278	0.020048222
359	0.0467103	0.073421928	0.019998672
360	0.04692455	0.07387199	0.01997711
361	0.0472035	0.074390699	0.020016301
362	0.04759215	0.075025063	0.020159237
363	0.04787535	0.075588852	0.020161848
364	0.04813875	0.076105896	0.020171604
365	0.0484023	0.076585066	0.020219534
366	0.04894395	0.077291084	0.020596816
367	0.0492266	0.07774999	0.02070321
368	0.0493329	0.078043435	0.020622365
369	0.0493552	0.078262132	0.020448268
370	0.0496309	0.07872927	0.02053253
371	0.05003215	0.079325116	0.020739184
372	0.0505154	0.080010238	0.021020562
373	0.05067175	0.080428403	0.020915097
374	0.0509006	0.080939315	0.020861885
375	0.0512687	0.081604941	0.020932459
376	0.0516991	0.082352521	0.021045679
377	0.052045	0.082971757	0.021118243
378	0.0523696	0.083547621	0.021191579
379	0.0528771	0.084334668	0.021419532
380	0.05325445	0.084947752	0.021561148
381	0.05352525	0.085442301	0.021608199
382	0.05366315	0.085813392	0.021512908
383	0.05421235	0.086579943	0.021844757
384	0.05468045	0.087327767	0.022033133
385	0.05497235	0.087981986	0.021962714
386	0.055312	0.088751697	0.021872303
387	0.05584945	0.089673455	0.022025445
388	0.0564735	0.090636066	0.022310934
389	0.0567943	0.09123789	0.02235071
390	0.05706285	0.091715231	0.022410469
391	0.05732955	0.092175961	0.022483139
392	0.05765175	0.092732896	0.022570604
393	0.0581574	0.093517977	0.022796823
394	0.05863755	0.094318349	0.022956751
395	0.0590356	0.095069146	0.023002054
396	0.05940115	0.095827245	0.022975055
397	0.0598781	0.096713553	0.023042647
398	0.06040675	0.097645376	0.023168124
399	0.06085095	0.098428202	0.023273698
400	0.06116185	0.098972119	0.023351581
401	0.06142325	0.099418093	0.023428407
402	0.0617164	0.099894491	0.023538309
403	0.0620451	0.100363413	0.023726787
404	0.06237295	0.100838776	0.023907124
405	0.06269985	0.101337845	0.024061855
406	0.0631154	0.101987839	0.024242961
407	0.06352385	0.102663765	0.024383935
408	0.06391435	0.103350187	0.024478513
409	0.06423425	0.103998082	0.024470418
410	0.06472245	0.104787295	0.024657605
411	0.0652362	0.105584462	0.024887938
412	0.06563005	0.106256232	0.025003868
413	0.06597145	0.106854055	0.025088845
414	0.0663458	0.107475941	0.025215659
415	0.06679555	0.108170987	0.025420113
416	0.06714705	0.108787074	0.025507026
417	0.06755375	0.109452418	0.025655082
418	0.0680094	0.110162728	0.025856072
419	0.06843435	0.110864546	0.026004154
420	0.0688634	0.111579285	0.026147515
421	0.06930745	0.112309365	0.026305535
422	0.0698007	0.113079024	0.026522376
423	0.0702411	0.113791881	0.026690319
424	0.0706408	0.114452239	0.026829361
425	0.07099975	0.115056886	0.026942614
426	0.07144535	0.115724989	0.027165711
427	0.0718884	0.11642188	0.02735492
428	0.07232895	0.117151663	0.027506237
429	0.0728292	0.117960021	0.027698379
430	0.0733138	0.118775709	0.027851891
431	0.07379725	0.119611583	0.027982917
432	0.0743214	0.120529275	0.028113525
433	0.07481385	0.121399946	0.028227754
434	0.07529875	0.122235303	0.028362197
435	0.0757931	0.123043235	0.028542965
436	0.0761595	0.123610181	0.028708819
437	0.07657085	0.12423058	0.02891112
438	0.07703965	0.124931022	0.029148278
439	0.07750435	0.125680538	0.029328162
440	0.07800735	0.1264736	0.0295411
441	0.0785179	0.127281709	0.029754091
442	0.07897575	0.128062376	0.029889124
443	0.07944215	0.12883569	0.03004861
444	0.0798994	0.12957801	0.03022079
445	0.08033525	0.130265606	0.030404894
446	0.080819	0.131023633	0.030614367
447	0.08132255	0.131814683	0.030830417
448	0.0818437	0.132636699	0.031050701
449	0.08232965	0.133422508	0.031236792
450	0.0827961	0.134166065	0.031426135
451	0.0832533	0.134883097	0.031623503
452	0.08371935	0.135594563	0.031844137
453	0.0841608	0.136300701	0.032020899
454	0.084616	0.137033463	0.032198537
455	0.08512265	0.137830515	0.032414785
456	0.08565785	0.138692459	0.032623241
457	0.08619315	0.139557395	0.032828905
458	0.086717	0.140404075	0.033029925
459	0.0871744	0.141135199	0.033213601
460	0.0876391	0.141880329	0.033397871
461	0.0881096	0.142637034	0.033582166
462	0.08857915	0.143394226	0.033764074
463	0.08908965	0.144182981	0.033996319
464	0.08960945	0.144975718	0.034243182
465	0.0901131	0.14574576	0.03448044
466	0.0906381	0.146539688	0.034736512
467	0.0911487	0.147339488	0.034957912
468	0.09163435	0.148140174	0.035128526
469	0.0921758	0.149007909	0.035343691
470	0.0927177	0.14987097	0.03556443
471	0.09325985	0.150726013	0.035793687
472	0.0938124	0.151572478	0.036052322
473	0.09432625	0.152377976	0.036274524
474	0.09483015	0.15317282	0.03648748
475	0.0953497	0.153985315	0.036714085
476	0.0958927	0.154816957	0.036968443
477	0.0964259	0.155638187	0.037213613
478	0.0969423	0.156444779	0.037439821
479	0.0975056	0.157309446	0.037701754
480	0.09805095	0.158134679	0.037967221
481	0.0985804	0.158922628	0.038238172
482	0.0991061	0.159678295	0.038533905
483	0.09961505	0.160407248	0.038822852
484	0.1001364	0.161160078	0.039112722
485	0.1007027	0.161998114	0.039407286
486	0.1013188	0.162962656	0.039674944
487	0.10195975	0.16397949	0.03994001
488	0.10261935	0.165031023	0.040207677
489	0.1032036	0.166002506	0.040404694
490	0.10379485	0.166917992	0.040671708
491	0.10438665	0.167774657	0.040998643
492	0.1049825	0.168605089	0.041359911
493	0.1056094	0.169504385	0.041714415
494	0.10623975	0.170428834	0.042050666
495	0.1068372	0.17133271	0.04234169
496	0.1074139	0.172193111	0.042634689
497	0.10799265	0.173035498	0.042949802
498	0.10858695	0.173871411	0.043302489
499	0.1092236	0.174781325	0.043665875
500	0.10987885	0.175728276	0.044029424
501	0.11054805	0.176707438	0.044388662
502	0.11121475	0.177714274	0.044715226
503	0.11188755	0.178728082	0.045047018
504	0.1125569	0.179729423	0.045384377
505	0.11321865	0.180697094	0.045740206
506	0.1138946	0.181660735	0.046128465
507	0.11456995	0.182616262	0.046523638
508	0.1152442	0.183568801	0.046919599
509	0.11593615	0.184555572	0.047316728
510	0.11661825	0.185538005	0.047698495
511	0.11729285	0.186515803	0.048069897
512	0.11798435	0.187480051	0.048488649
513	0.11866735	0.1884176	0.0489171
514	0.11935555	0.1893565	0.0493546
515	0.1200698	0.190338674	0.049800926
516	0.12081135	0.191404475	0.050218225
517	0.12159235	0.192545101	0.050639599
518	0.12242415	0.193769976	0.051078324
519	0.1232221	0.194990854	0.051453346
520	0.12400835	0.196162268	0.051854432
521	0.1247772	0.197266193	0.052288207
522	0.1255219	0.198262993	0.052780807
523	0.1262865	0.19927102	0.05330198
524	0.12705935	0.20029161	0.05382709
525	0.12780065	0.201314712	0.054286588
526	0.1285863	0.202401799	0.054770801
527	0.12939065	0.203531604	0.055249696
528	0.1302133	0.204719193	0.055707407
529	0.1310569	0.205904608	0.056209192
530	0.1318653	0.207003497	0.056727103
531	0.13263105	0.208004706	0.057257394
532	0.1334248	0.209050606	0.057798994
533	0.1342338	0.210151546	0.058316054
534	0.1350608	0.211299039	0.058822561
535	0.13591505	0.212480081	0.059350019
536	0.1367318	0.213579304	0.059884296
537	0.1375408	0.214646924	0.060434676
538	0.13836725	0.215715303	0.061019197
539	0.13920865	0.216849576	0.061567724
540	0.1400575	0.218008297	0.062106703
541	0.1409092	0.2191808	0.0626376
542	0.1418431	0.220459795	0.063226405
543	0.14272385	0.221654402	0.063793298
544	0.1435672	0.222784179	0.064350221
545	0.1444363	0.223919727	0.064952873
546	0.14532065	0.225075702	0.065565598
547	0.1462069	0.226239401	0.066174399
548	0.147087	0.227406705	0.066767295
549	0.14798275	0.228600244	0.067365256
550	0.14888835	0.229794059	0.067982641
551	0.14980245	0.230981673	0.068623227
552	0.15070155	0.232164279	0.069238821
553	0.1515997	0.233341406	0.069857994
554	0.15249915	0.234512649	0.070485651
555	0.15340165	0.235661916	0.071141384
556	0.1542892	0.236793336	0.071785064
557	0.1551921	0.237950825	0.072433375
558	0.15614445	0.239187353	0.073101547
559	0.15709875	0.240448779	0.073748721
560	0.15805045	0.241705706	0.074395194
561	0.1589937	0.242944075	0.075043325
562	0.1599129	0.244111602	0.075714198
563	0.16082285	0.245262961	0.076382739
564	0.16173475	0.246414628	0.077054872
565	0.162694	0.247631153	0.077756847
566	0.1636318	0.248827867	0.078435733
567	0.16457105	0.250024612	0.079117488
568	0.165533	0.251235104	0.079830896
569	0.16645815	0.252417649	0.080498651
570	0.16740365	0.253635686	0.081171614
571	0.1683897	0.254914345	0.081865055
572	0.1693497	0.256151832	0.082547568
573	0.1703058	0.257345137	0.083266463
574	0.17125755	0.258501155	0.084013945
575	0.1721863	0.259653133	0.084719467
576	0.17314015	0.260858603	0.085421697
577	0.17411725	0.262104161	0.086130339
578	0.1751104	0.263369672	0.086851128
579	0.17610175	0.264643485	0.087560015
580	0.1770881	0.265905705	0.088270495
581	0.17806315	0.267141423	0.088984877
582	0.1790532	0.268347642	0.089758758
583	0.1800251	0.269523448	0.090526752
584	0.18098885	0.270683424	0.091294276
585	0.18200775	0.271901211	0.092114289
586	0.18299435	0.273076383	0.092912317
587	0.18398525	0.274257096	0.093713404
588	0.18501925	0.275497622	0.094540878
589	0.186134	0.276911415	0.095356585
590	0.187283	0.278393589	0.096172411
591	0.18843425	0.279888119	0.096980381
592	0.18950735	0.281168384	0.097846316
593	0.1905873	0.282466485	0.098708115
594	0.1916921	0.283814785	0.099569415
595	0.19282905	0.285228932	0.100429168
596	0.19399385	0.286681292	0.101306408
597	0.1951751	0.288156605	0.102193595
598	0.19634555	0.289618572	0.103072528
599	0.1975353	0.291111	0.1039596
600	0.19874745	0.292634423	0.104860477
601	0.19998	0.294185283	0.105774717
602	0.2012575	0.295806156	0.106708844
603	0.20251355	0.297383859	0.107643241
604	0.2037412	0.298904423	0.108577977
605	0.20497955	0.30040374	0.10955536
606	0.206212	0.301886073	0.110537927
607	0.2074436	0.303359479	0.111527721
608	0.2086421	0.304783212	0.112500988
609	0.2098873	0.306252773	0.113521827
610	0.2111459	0.307723621	0.114568179
611	0.2123757	0.309136567	0.115614833
612	0.2136064	0.310529004	0.116683796
613	0.21481035	0.311878739	0.117741961
614	0.21598265	0.313180616	0.118784684
615	0.2172137	0.314566817	0.119860583
616	0.2184743	0.316004748	0.120943852
617	0.2197531	0.317471643	0.122034557
618	0.2210218	0.318905614	0.123137986
619	0.22219705	0.320180144	0.124213956
620	0.2233543	0.321415057	0.125293543
621	0.22454195	0.322683712	0.126400188
622	0.22572755	0.323979607	0.127475493
623	0.2269499	0.325337291	0.128562509
624	0.2282132	0.326761336	0.129665064
625	0.2294584	0.328163126	0.130753674
626	0.2307285	0.329576058	0.131880942
627	0.23200815	0.330990294	0.133026006
628	0.23327755	0.332407136	0.134147964
629	0.23453465	0.333834695	0.135234605
630	0.23577425	0.33525143	0.13629707
631	0.23699325	0.336642215	0.137344285
632	0.2382278	0.338053895	0.138401705
633	0.2394704	0.339465203	0.139475597
634	0.2407223	0.340874217	0.140570383
635	0.2420232	0.342344408	0.141701992
636	0.24330205	0.343781291	0.142822809
637	0.24456675	0.34519227	0.14394123
638	0.24585145	0.346602402	0.145100498
639	0.2471161	0.348017969	0.146214231
640	0.24839655	0.349472212	0.147320888
641	0.24974285	0.351024223	0.148461477
642	0.25109245	0.352562069	0.149622831
643	0.2524068	0.354046063	0.150767537
644	0.2536818	0.355470913	0.151892687
645	0.25502325	0.356978511	0.153067989
646	0.2563588	0.358488516	0.154229084
647	0.2576941	0.36000977	0.15537843
648	0.25905985	0.361596805	0.156522895
649	0.26048135	0.363266524	0.157696176
650	0.2619099	0.364939154	0.158880646
651	0.2633045	0.366532269	0.160076731
652	0.2646398	0.368010333	0.161269267
653	0.26591755	0.369383998	0.162451102
654	0.2671489	0.370657784	0.163640016
655	0.2684772	0.372211968	0.164742432
656	0.2700282	0.374086757	0.165969643
657	0.2716878	0.376107303	0.167268297
658	0.2731052	0.377622307	0.168588093
659	0.2745129	0.379103973	0.169921827
660	0.27591005	0.380570292	0.171249808
661	0.2772911	0.382040211	0.172541989
662	0.27862365	0.383458023	0.173789277
663	0.27997805	0.384903731	0.175052369
664	0.2813866	0.386415058	0.176358142
665	0.2827672	0.387876427	0.177657973
666	0.28414575	0.389344202	0.178947298
667	0.2855268	0.390823328	0.180230272
668	0.2869114	0.39229409	0.18152871
669	0.28828985	0.393749787	0.182829913
670	0.2896645	0.395202799	0.184126201
671	0.29102725	0.396664354	0.185390146
672	0.29239365	0.398122141	0.186665159
673	0.29375675	0.399569973	0.187943527
674	0.2951169	0.401005979	0.189227821
675	0.29645885	0.402429859	0.190487841
676	0.2978224	0.403878143	0.191766657
677	0.29920785	0.405349885	0.193065815
678	0.30055705	0.406769095	0.194345005
679	0.30192195	0.408213317	0.195630583
680	0.3032921	0.409664889	0.196919311
681	0.3046448	0.411085192	0.198204408
682	0.3059645	0.412457884	0.199471116
683	0.30722795	0.413741382	0.200714518
684	0.3084159	0.414892926	0.201938874
685	0.3094876	0.415836406	0.203138794
686	0.31074715	0.417142515	0.204351785
687	0.3122191	0.418887739	0.205550461
688	0.3137145	0.420602903	0.206826097
689	0.3151852	0.422195464	0.208174936
690	0.3166159	0.42368284	0.20954896
691	0.31802145	0.425123499	0.210919401
692	0.31943385	0.426574522	0.212293178
693	0.3208359	0.428048065	0.213623735
694	0.3221987	0.429547772	0.214849628
695	0.3235882	0.431048722	0.216127678
696	0.3249143	0.432442298	0.217386302
697	0.32618515	0.433735032	0.218635268
698	0.32748515	0.4350842	0.2198861
699	0.32881995	0.436482499	0.221157401
700	0.3301729	0.437917275	0.222428525
701	0.33148665	0.439355437	0.223617863
702	0.3328532	0.440834854	0.224871546
703	0.3341975	0.442268816	0.226126184
704	0.335473	0.443592214	0.227353786
705	0.33676875	0.444961134	0.228576366
706	0.3380686	0.446333454	0.229803746
707	0.33936895	0.447701419	0.231036481
708	0.34061235	0.449026308	0.232198392
709	0.34187075	0.450356684	0.233384816
710	0.3431373	0.451688048	0.234586552
711	0.3443886	0.45300093	0.23577627
712	0.34566155	0.454329009	0.236994091
713	0.346926	0.455622728	0.238229272
714	0.34815685	0.456819998	0.239493702
715	0.34929525	0.45783118	0.24075932
716	0.3505003	0.458965769	0.242034831
717	0.3518167	0.460330879	0.243302521
718	0.3531541	0.461929045	0.244379155
719	0.35451685	0.463566438	0.245467262
720	0.3557788	0.465044234	0.246513366
721	0.35686925	0.466037777	0.247700723
722	0.3580125	0.467121042	0.248903958
723	0.3592655	0.468380399	0.250150601
724	0.36059915	0.46986492	0.25133338
725	0.3618337	0.471183989	0.252483411
726	0.3630168	0.472431028	0.253602572
727	0.36416855	0.473636595	0.254700505
728	0.36540305	0.474971977	0.255834123
729	0.36664015	0.47632584	0.25695446
730	0.3678503	0.477663746	0.258036854
731	0.36897955	0.478923486	0.259035614
732	0.3701075	0.48012206	0.26009294
733	0.3712229	0.481277065	0.261168735
734	0.3723469	0.482428453	0.262265347
735	0.37351505	0.483668141	0.263361959
736	0.3746748	0.484900995	0.264448605
737	0.37580585	0.486091908	0.265519792
738	0.37690055	0.487275426	0.266525674
739	0.37802195	0.488473902	0.267569998
740	0.3791635	0.489683871	0.268643129
741	0.38028065	0.490908976	0.269652324
742	0.38139155	0.492084876	0.270698224
743	0.38250115	0.493243642	0.271758658
744	0.3836329	0.494445841	0.272819959
745	0.3847544	0.495638767	0.273870033
746	0.3858783	0.496826395	0.274930205
747	0.3870167	0.49801475	0.27601865
748	0.38806985	0.49913321	0.27700649
749	0.38916875	0.500306984	0.278030516
750	0.3903064	0.501526902	0.279085898
751	0.3913633	0.502658496	0.280068104
752	0.39243975	0.503818442	0.281061058
753	0.39352915	0.504990218	0.282068082
754	0.39463455	0.506155233	0.283113867
755	0.3957113	0.507291958	0.284130642
756	0.39664875	0.50820551	0.28509199
757	0.39738125	0.508741459	0.286021041
758	0.39700555	0.507632711	0.286378389
759	0.3970281	0.507330498	0.286725702
760	0.39816045	0.509228253	0.287092647
761	0.3997356	0.511091521	0.288379679
762	0.40115545	0.512720195	0.289590705
763	0.40262605	0.514420216	0.290831884
764	0.4042144	0.516383858	0.292044942
765	0.40569625	0.51808584	0.29330666
766	0.40697435	0.519502075	0.294446625
767	0.40811395	0.520724637	0.295503263
768	0.40923725	0.521933851	0.296540649
769	0.4103177	0.523103864	0.297531536
770	0.41136455	0.524244761	0.298484339
771	0.4123521	0.525326383	0.299377817
772	0.4133667	0.526431472	0.300301928
773	0.4144011	0.527558748	0.301243452
774	0.4154294	0.528697519	0.302161281
775	0.41642525	0.529798129	0.303052371
776	0.4174113	0.530888025	0.303934575
777	0.418405	0.53198744	0.30482256
778	0.41939295	0.533084225	0.305701675
779	0.4203749	0.534177202	0.306572598
780	0.42134835	0.535263649	0.307433051
781	0.42229155	0.536305493	0.308277607
782	0.42327185	0.537390384	0.309153316
783	0.4242775	0.53850648	0.31004852
784	0.4252477	0.539592382	0.310903018
785	0.4262385	0.540688667	0.311788333
786	0.4272491	0.541799801	0.312698399
787	0.4282753	0.542921195	0.313629405
788	0.4292259	0.543987543	0.314464257
789	0.43014695	0.545030216	0.315263684
790	0.4310395	0.546047022	0.316031978
791	0.43197395	0.547091737	0.316856163
792	0.4328686	0.548112726	0.317624474
793	0.4337538	0.54913326	0.31837434
794	0.43478575	0.55027997	0.31929153
795	0.43576685	0.551396796	0.320136904
796	0.4367087	0.55247995	0.32093745
797	0.4375996	0.553502175	0.321697025
798	0.438507	0.554527726	0.322486274
799	0.4394374	0.555591245	0.323283555
800	0.44038205	0.556691135	0.324072965
801	0.4412753	0.557707309	0.324843291
802	0.44216535	0.558728944	0.325601756
803	0.443047	0.559751612	0.326342388
804	0.4438605	0.560716525	0.327004475
805	0.444755	0.561756273	0.327753727
806	0.44567105	0.562809375	0.328532725
807	0.4465502	0.56381136	0.32928904
808	0.4474974	0.56489443	0.33010037
809	0.44843	0.565970858	0.330889142
810	0.44930945	0.56700062	0.33161828
811	0.4502771	0.568117247	0.332436953
812	0.45123345	0.5691868	0.3332801
813	0.4521835	0.570225176	0.334141824
814	0.45300065	0.571185963	0.334815337
815	0.45383475	0.572150915	0.335518585
816	0.45466025	0.573109143	0.336211357
817	0.4554234	0.574030025	0.336816775
818	0.4562777	0.57506336	0.33749204
819	0.4571397	0.576136088	0.338143312
820	0.4580043	0.57725914	0.33874946
821	0.4587965	0.578086894	0.339506106
822	0.45969225	0.579095263	0.340289237
823	0.4606053	0.580206611	0.341003989
824	0.4614276	0.58131412	0.34154108
825	0.46228945	0.582353994	0.342224906
826	0.46318315	0.583379526	0.342986774
827	0.4640102	0.584337828	0.343682572
828	0.46482735	0.585326022	0.344328678
829	0.4656511	0.586332733	0.344969467
830	0.46649395	0.587362225	0.345625675
831	0.46726375	0.588303464	0.346224036
832	0.46806295	0.58926334	0.34686256
833	0.4688855	0.590238611	0.347532389
834	0.46968535	0.591246805	0.348123895
835	0.47046125	0.592208397	0.348714103
836	0.4712324	0.593152153	0.349312647
837	0.47202815	0.594116228	0.349940072
838	0.47273485	0.594999809	0.350469891
839	0.47345735	0.595901064	0.351013636
840	0.47425765	0.596878993	0.351636307
841	0.47506045	0.597869942	0.352250958
842	0.4758617	0.598846545	0.352876855
843	0.4766554	0.599801792	0.353509008
844	0.4773539	0.600682776	0.354025024
845	0.4781181	0.601639118	0.354597082
846	0.47892415	0.602646756	0.355201544
847	0.4797309	0.603670457	0.355791343
848	0.48042915	0.604491515	0.356366785
849	0.48112525	0.605306815	0.356943685
850	0.48186285	0.606215637	0.357510063
851	0.48262105	0.607242716	0.357999384
852	0.4833112	0.608091256	0.358531144
853	0.4839378	0.608738227	0.359137373
854	0.48469025	0.609622408	0.359758092
855	0.485589	0.610793312	0.360384688
856	0.48650245	0.612031218	0.360973682
857	0.4872146	0.612947392	0.361481808
858	0.4879191	0.613809395	0.362028805
859	0.4886399	0.61468939	0.36259041
860	0.48938725	0.615633271	0.363141229
861	0.4901097	0.616546304	0.363673096
862	0.49084075	0.61748344	0.36419806
863	0.49159315	0.618462826	0.364723474
864	0.49220615	0.619171873	0.365240427
865	0.4928019	0.619846151	0.365757649
866	0.4934212	0.620559624	0.366282776
867	0.4942247	0.621604648	0.366844752
868	0.49499135	0.622620601	0.367362099
869	0.49574655	0.623609729	0.367883371
870	0.4965365	0.624598639	0.368474361
871	0.49733645	0.6255967	0.3690762
