Wavelength	Mean	Std+	Std-
350	0.0890443	0.124164421	0.053924179
351	0.0893228	0.12456181	0.05408379
352	0.08959965	0.124957659	0.054241641
353	0.0900457	0.125517719	0.054573681
354	0.09034745	0.125914941	0.054779959
355	0.0904972	0.126147405	0.054846995
356	0.09069625	0.126495113	0.054897387
357	0.0911816	0.127097178	0.055266022
358	0.0917453	0.127760474	0.055730126
359	0.09198515	0.128105619	0.055864681
360	0.09231495	0.128527926	0.056101974
361	0.09265445	0.128980562	0.056328338
362	0.09296805	0.129456785	0.056479315
363	0.0933831	0.129980752	0.056785448
364	0.09386065	0.130578019	0.057143281
365	0.09438375	0.13123764	0.05752986
366	0.0947647	0.131745708	0.057783692
367	0.0951033	0.132185304	0.058021296
368	0.0954116	0.132593778	0.058229422
369	0.0956894	0.133037008	0.058341792
370	0.09588495	0.133375369	0.058394531
371	0.0962325	0.133861481	0.058603519
372	0.09696085	0.134732647	0.059189053
373	0.09730345	0.135248447	0.059358453
374	0.09783115	0.135926116	0.059736184
375	0.09863095	0.136843879	0.060418021
376	0.09889475	0.137278707	0.060510793
377	0.099205	0.137758098	0.060651902
378	0.09957295	0.13829175	0.06085415
379	0.10005145	0.138915103	0.061187797
380	0.1005842	0.139642367	0.061526033
381	0.10111685	0.140370109	0.061863591
382	0.1016015	0.141006987	0.062196013
383	0.1021074	0.141676338	0.062538462
384	0.1026381	0.142371377	0.062904823
385	0.1031977	0.143094643	0.063300757
386	0.10385035	0.143901517	0.063799183
387	0.10435015	0.144562801	0.064137499
388	0.1047286	0.145104115	0.064353085
389	0.1050571	0.145578358	0.064535842
390	0.1054883	0.146183244	0.064793356
391	0.1059358	0.146803183	0.065068417
392	0.10634165	0.147358116	0.065325184
393	0.10665695	0.14784036	0.06547354
394	0.1071555	0.148492488	0.065818512
395	0.10788305	0.14934945	0.06641665
396	0.1083499	0.149915645	0.066784155
397	0.10870835	0.150391885	0.067024815
398	0.10902185	0.150832683	0.067211017
399	0.10951015	0.151440387	0.067579913
400	0.10979	0.151831286	0.067748714
401	0.11001755	0.152163925	0.067871175
402	0.1103405	0.152596674	0.068084326
403	0.11054605	0.152914627	0.068177473
404	0.1108088	0.153279045	0.068338555
405	0.1111844	0.153743941	0.068624859
406	0.1114978	0.154157876	0.068837724
407	0.11184365	0.154614146	0.069073154
408	0.1122114	0.155097134	0.069325666
409	0.11254765	0.155530535	0.069564765
410	0.11285765	0.155947578	0.069767722
411	0.11314255	0.156342085	0.069943015
412	0.11339975	0.156707693	0.070091807
413	0.1138066	0.157228861	0.070384339
414	0.11419895	0.157739602	0.070658298
415	0.11452865	0.158194157	0.070863143
416	0.1148424	0.158627004	0.071057796
417	0.11518015	0.159083566	0.071276734
418	0.11554	0.159563476	0.071516524
419	0.11590525	0.160060054	0.071750446
420	0.1162867	0.160561994	0.072011406
421	0.1166879	0.161084684	0.072291116
422	0.11713185	0.161672313	0.072591387
423	0.11750785	0.162179997	0.072835703
424	0.1178721	0.162678023	0.073066177
425	0.11824915	0.16319879	0.07329951
426	0.1186076	0.163691502	0.073523698
427	0.11900465	0.164229716	0.073779584
428	0.1194444	0.164818191	0.074070609
429	0.1199093	0.16542843	0.07439017
430	0.1203428	0.166013765	0.074671835
431	0.1207765	0.166601741	0.074951259
432	0.1212854	0.167265646	0.075305154
433	0.1217705	0.167911914	0.075629086
434	0.1222291	0.16853332	0.07592488
435	0.12265925	0.169128635	0.076189865
436	0.12307575	0.169701366	0.076450134
437	0.1234919	0.17026465	0.07671915
438	0.1239119	0.170825844	0.076997956
439	0.1243364	0.171405211	0.077267589
440	0.1247336	0.171953882	0.077513318
441	0.1251253	0.172492309	0.077758291
442	0.12557025	0.17307419	0.07806631
443	0.125971	0.17361492	0.07832708
444	0.1263541	0.174134373	0.078573827
445	0.12673195	0.174640403	0.078823497
446	0.12706715	0.175095611	0.079038689
447	0.1274106	0.175557733	0.079263467
448	0.1277704	0.176035619	0.079505181
449	0.1281411	0.176517246	0.079764954
450	0.1284663	0.17695268	0.07997992
451	0.1287625	0.177358168	0.080166832
452	0.1290549	0.177757194	0.080352606
453	0.1293366	0.178127493	0.080545707
454	0.1296223	0.178496846	0.080747754
455	0.129926	0.178886627	0.080965373
456	0.13022385	0.179267102	0.081180598
457	0.13049865	0.179623226	0.081374074
458	0.1307433	0.179946639	0.081539961
459	0.13097795	0.180247584	0.081708316
460	0.13120055	0.180534842	0.081866258
461	0.1314208	0.180820235	0.082021365
462	0.13167095	0.181142537	0.082199363
463	0.1318592	0.181397607	0.082320793
464	0.13206	0.181661442	0.082458558
465	0.1323438	0.182005251	0.082682349
466	0.13253775	0.182252671	0.082822829
467	0.1327298	0.18249598	0.08296362
468	0.13293825	0.182754629	0.083121871
469	0.13315235	0.183026304	0.083278396
470	0.13337485	0.183304937	0.083444763
471	0.13360135	0.183585732	0.083616968
472	0.1338201	0.183855721	0.083784479
473	0.1339947	0.18408543	0.08390397
474	0.1341853	0.184335312	0.084035288
475	0.13446205	0.184676422	0.084247678
476	0.1346507	0.184930956	0.084370444
477	0.1348472	0.185190742	0.084503658
478	0.1350757	0.185479207	0.084672193
479	0.1353041	0.185781366	0.084826834
480	0.1355384	0.18608795	0.08498885
481	0.13578335	0.186404825	0.085161875
482	0.13607335	0.1867739	0.0853728
483	0.13629785	0.187076731	0.085518969
484	0.13650515	0.187366081	0.085644219
485	0.13674255	0.187694255	0.085790845
486	0.13702325	0.188054173	0.085992327
487	0.13732765	0.188436289	0.086219011
488	0.13765325	0.188841088	0.086465412
489	0.1379489	0.189230843	0.086666957
490	0.13823605	0.189616792	0.086855308
491	0.1385131	0.18999477	0.08703143
492	0.13879175	0.190375978	0.087207522
493	0.1390848	0.190764801	0.087404799
494	0.13939355	0.191170751	0.087616349
495	0.13973125	0.191620407	0.087842093
496	0.14006125	0.192057246	0.088065254
497	0.14036605	0.192468804	0.088263296
498	0.1406364	0.192848144	0.088424656
499	0.14092145	0.193242765	0.088600135
500	0.1412265	0.193658163	0.088794837
501	0.14155265	0.194095134	0.089010166
502	0.1419187	0.194570214	0.089267186
503	0.14227285	0.195034103	0.089511597
504	0.14261785	0.19548986	0.08974584
505	0.14295865	0.195946252	0.089971048
506	0.14328205	0.19638954	0.09017456
507	0.1435938	0.196822937	0.090364663
508	0.14389585	0.197250033	0.090541667
509	0.1442333	0.197702075	0.090764525
510	0.14458565	0.198168297	0.091003003
511	0.1449483	0.198645614	0.091250986
512	0.1452769	0.19909636	0.09145744
513	0.1455814	0.199522557	0.091640243
514	0.14588395	0.199945625	0.091822275
515	0.14622335	0.200397782	0.092048918
516	0.14658845	0.200880199	0.092296701
517	0.14697795	0.201386634	0.092569266
518	0.14739655	0.201918619	0.092874481
519	0.14777815	0.202425392	0.093130908
520	0.14813995	0.202918681	0.093361219
521	0.1484824	0.203396386	0.093568414
522	0.1488376	0.203882325	0.093792875
523	0.1491825	0.204357047	0.094007953
524	0.1495273	0.204830874	0.094223726
525	0.14989215	0.20532195	0.09446235
526	0.15023955	0.205792503	0.094686597
527	0.1505834	0.206257168	0.094909632
528	0.1509347	0.206727299	0.095142101
529	0.1512738	0.20719455	0.09535305
530	0.15160745	0.207658471	0.095556429
531	0.15193655	0.208118864	0.095754236
532	0.15227845	0.208581587	0.095975313
533	0.15262925	0.209048959	0.096209541
534	0.15297815	0.209512837	0.096443463
535	0.1532829	0.209939876	0.096625924
536	0.15360215	0.210385298	0.096819002
537	0.15391945	0.210826391	0.097012509
538	0.1542234	0.211245527	0.097201273
539	0.15452385	0.21165844	0.09738926
540	0.1548312	0.212074336	0.097588064
541	0.15514635	0.212493412	0.097799288
542	0.1554937	0.212948742	0.098038658
543	0.1558135	0.213381947	0.098245053
544	0.15610985	0.213794174	0.098425526
545	0.1563904	0.214187573	0.098593227
546	0.15668695	0.214597977	0.098775923
547	0.15698875	0.215010894	0.098966606
548	0.1572889	0.215413548	0.099164252
549	0.1575945	0.215827651	0.099361349
550	0.1578908	0.216234438	0.099547162
551	0.15817335	0.216628754	0.099717946
552	0.1584703	0.217029919	0.099910681
553	0.15875995	0.217422563	0.100097337
554	0.15904035	0.217804616	0.100276084
555	0.15929495	0.218157182	0.100432718
556	0.1595462	0.218509257	0.100583143
557	0.15980725	0.218870437	0.100744063
558	0.1600977	0.219255019	0.100940381
559	0.16033055	0.219580515	0.101080585
560	0.1605771	0.219918435	0.101235765
561	0.16085855	0.220289445	0.101427655
562	0.16109195	0.220622147	0.101561753
563	0.1613345	0.220956697	0.101712303
564	0.16158125	0.22128902	0.10187348
565	0.16179115	0.221583049	0.101999251
566	0.16201725	0.221890512	0.102143988
567	0.16224395	0.222197761	0.102290139
568	0.16244855	0.222482936	0.102414164
569	0.1626764	0.222786509	0.102566291
570	0.1629108	0.223096931	0.102724669
571	0.1631471	0.223411227	0.102882973
572	0.1633358	0.223679185	0.102992415
573	0.16353195	0.223954087	0.103109813
574	0.16373575	0.224235523	0.103235977
575	0.16393205	0.224501565	0.103362535
576	0.1641534	0.224793463	0.103513337
577	0.1643888	0.225099348	0.103678252
578	0.1646251	0.225403009	0.103847191
579	0.1648491	0.225699358	0.103998842
580	0.165063	0.225987063	0.104138937
581	0.1652656	0.226263432	0.104267768
582	0.1654753	0.226544878	0.104405722
583	0.1656843	0.226824167	0.104544433
584	0.1658917	0.227101621	0.104681779
585	0.16607785	0.227358856	0.104796844
586	0.16627675	0.227623885	0.104929615
587	0.16647185	0.227882459	0.105061241
588	0.16661915	0.228089847	0.105148453
589	0.16684065	0.2283661	0.1053152
590	0.1670761	0.228657367	0.105494833
591	0.1672968	0.228937875	0.105655725
592	0.16748965	0.229200488	0.105778812
593	0.1676838	0.229461209	0.105906391
594	0.1678827	0.229723384	0.106042016
595	0.16808155	0.22998209	0.10618101
596	0.16830465	0.230268585	0.106340715
597	0.168539	0.230567108	0.106510892
598	0.1687586	0.230846036	0.106671164
599	0.16896	0.231104002	0.106815998
600	0.16917035	0.231372173	0.106968527
601	0.16940795	0.231670518	0.107145382
602	0.1696399	0.231961647	0.107318153
603	0.1698807	0.232258707	0.107502693
604	0.17012895	0.232559994	0.107697906
605	0.17032265	0.232810618	0.107834682
606	0.1705458	0.233085021	0.108006579
607	0.1707835	0.233370418	0.108196582
608	0.17099435	0.233627895	0.108360805
609	0.17119095	0.233876309	0.108505591
610	0.17139585	0.234134837	0.108656863
611	0.1716258	0.23441774	0.10883386
612	0.1717886	0.234624117	0.108953083
613	0.17194665	0.234830793	0.109062507
614	0.17211045	0.235051204	0.109169696
615	0.1723216	0.235313683	0.109329517
616	0.17247835	0.23551989	0.10943681
617	0.1725998	0.235690424	0.109509176
618	0.17273545	0.235878197	0.109592703
619	0.1728384	0.236019892	0.109656908
620	0.17293785	0.23615477	0.10972093
621	0.1730549	0.236311216	0.109798584
622	0.1731891	0.236485646	0.109892554
623	0.17331465	0.236653259	0.109976041
624	0.1734247	0.236807097	0.110042303
625	0.17356685	0.236990731	0.110142969
626	0.17369715	0.237168669	0.110225631
627	0.1738218	0.237341349	0.110302251
628	0.1739677	0.23751565	0.11041975
629	0.17409605	0.237685772	0.110506328
630	0.1742119	0.237844576	0.110579224
631	0.1743157	0.23798187	0.11064953
632	0.1744189	0.238109612	0.110728188
633	0.1745291	0.23824831	0.11080989
634	0.1746488	0.238403259	0.110894341
635	0.17479085	0.238582935	0.110998765
636	0.17495645	0.238788868	0.111124032
637	0.17513205	0.239009519	0.111254581
638	0.1752599	0.239198985	0.111320815
639	0.17543365	0.239417858	0.111449442
640	0.17562215	0.239647749	0.111596551
641	0.1757996	0.239875393	0.111723807
642	0.1759947	0.240117858	0.111871542
643	0.17617755	0.240340968	0.112014132
644	0.1763399	0.240533909	0.112145891
645	0.176561	0.240795249	0.112326751
646	0.17675445	0.241019574	0.112489326
647	0.1769336	0.241222144	0.112645056
648	0.17718535	0.241502571	0.112868129
649	0.1774239	0.241777115	0.113070685
650	0.1776513	0.242043736	0.113258864
651	0.17786695	0.242297834	0.113436066
652	0.17809585	0.242569597	0.113622103
653	0.17829255	0.242810246	0.113774854
654	0.1784375	0.243000528	0.113874472
655	0.1786552	0.243242613	0.114067787
656	0.1788902	0.243506515	0.114273885
657	0.1791232	0.243774058	0.114472342
658	0.1793055	0.244007688	0.114603312
659	0.1794738	0.244212555	0.114735045
660	0.17963445	0.244405274	0.114863626
661	0.1797907	0.244602228	0.114979172
662	0.17994555	0.244781364	0.115109736
663	0.1800894	0.244945732	0.115233068
664	0.18021545	0.245092697	0.115338203
665	0.18036635	0.245270163	0.115462537
666	0.1805237	0.245453614	0.115593786
667	0.1806824	0.245637669	0.115727131
668	0.1808038	0.245779361	0.115828239
669	0.1809331	0.245940432	0.115925768
670	0.18107195	0.246114963	0.116028937
671	0.1812276	0.246296558	0.116158642
672	0.18139695	0.246499947	0.116293953
673	0.1815788	0.246718993	0.116438607
674	0.18177755	0.246957152	0.116597948
675	0.18196675	0.247181232	0.116752268
676	0.1821566	0.247409207	0.116903993
677	0.18234865	0.247644612	0.117052688
678	0.1825503	0.247905763	0.117194837
679	0.1827601	0.248173891	0.117346309
680	0.1829804	0.248452703	0.117508097
681	0.18322315	0.248759194	0.117687106
682	0.18350475	0.249113713	0.117895787
683	0.18377285	0.249457693	0.118088007
684	0.18399435	0.249755764	0.118232936
685	0.1841378	0.249977326	0.118298274
686	0.1843611	0.250278599	0.118443601
687	0.1846924	0.250688511	0.118696289
688	0.1851757	0.25132386	0.11902754
689	0.1856723	0.251973226	0.119371374
690	0.18616585	0.252620403	0.119711297
691	0.1866346	0.25325504	0.12001416
692	0.18711155	0.253891767	0.120331333
693	0.1876086	0.254548386	0.120668814
694	0.1881361	0.255237418	0.121034782
695	0.1886758	0.255945379	0.121406221
696	0.1891786	0.25661049	0.12174671
697	0.18964485	0.257234422	0.122055278
698	0.1900798	0.257826838	0.122332762
699	0.19053525	0.258428423	0.122642077
700	0.1910093	0.259040635	0.122977965
701	0.191505	0.259672627	0.123337373
702	0.1919924	0.260302845	0.123681955
703	0.1924623	0.260915274	0.124009326
704	0.1929095	0.261501079	0.124317921
705	0.19338	0.262104989	0.124655011
706	0.19384875	0.262707102	0.124990398
707	0.19431095	0.263303664	0.125318236
708	0.1948022	0.263922797	0.125681603
709	0.195272	0.264517382	0.126026618
710	0.1957245	0.265092459	0.126356541
711	0.19616845	0.265660659	0.126676241
712	0.19660535	0.26621973	0.12699097
713	0.1970255	0.266754379	0.127296621
714	0.19741255	0.267239751	0.127585349
715	0.197708	0.267611503	0.127804497
716	0.1980142	0.267990332	0.128038068
717	0.19835685	0.268404238	0.128309462
718	0.1989042	0.269060949	0.128747451
719	0.1994976	0.269794289	0.129200911
720	0.2000568	0.270504431	0.129609169
721	0.20044765	0.271034549	0.129860751
722	0.20082865	0.271514047	0.130143253
723	0.2012412	0.272016238	0.130466162
724	0.20169935	0.272574015	0.130824685
725	0.20209815	0.273080767	0.131115533
726	0.2025052	0.273596719	0.131413681
727	0.20294725	0.27414839	0.13174611
728	0.20338865	0.274700296	0.132077004
729	0.2038351	0.275256251	0.132413949
730	0.20428075	0.275811764	0.132749736
731	0.20474045	0.276404046	0.133076854
732	0.20519775	0.276985817	0.133409683
733	0.20563085	0.277536375	0.133725325
734	0.20601225	0.278029494	0.133995006
735	0.20641865	0.278531844	0.134305456
736	0.2068061	0.279014	0.1345982
737	0.20715575	0.279461279	0.134850221
738	0.2075565	0.279961241	0.135151759
739	0.2079412	0.280447691	0.135434709
740	0.2083066	0.280916467	0.135696733
741	0.20865265	0.281359848	0.135945452
742	0.2090076	0.281811613	0.136203587
743	0.20936475	0.282263448	0.136466052
744	0.2097192	0.282707866	0.136730534
745	0.2100766	0.28315256	0.13700064
746	0.2104198	0.283585231	0.137254369
747	0.21073975	0.283999144	0.137480356
748	0.2110784	0.284425331	0.137731469
749	0.21140205	0.284835929	0.137968171
750	0.21171005	0.285230453	0.138189647
751	0.2120381	0.285646113	0.138430087
752	0.2123565	0.286051268	0.138661732
753	0.21267375	0.286454708	0.138892792
754	0.21300975	0.286874832	0.139144668
755	0.2133078	0.287265348	0.139350252
756	0.21353215	0.287569468	0.139494832
757	0.21364415	0.287737085	0.139551215
758	0.2128674	0.286810191	0.138924609
759	0.21207995	0.285828208	0.138331692
760	0.2118665	0.285479093	0.138253907
761	0.21256305	0.286375903	0.138750197
762	0.2131774	0.287154662	0.139200138
763	0.21385985	0.28801366	0.13970604
764	0.21477405	0.289167941	0.140380159
765	0.21556825	0.290179081	0.140957419
766	0.2162058	0.29099267	0.14141893
767	0.21670545	0.291630461	0.141780439
768	0.2171205	0.292154462	0.142086538
769	0.21750545	0.292635821	0.142375079
770	0.21786855	0.293086523	0.142650577
771	0.218151	0.293463203	0.142838797
772	0.21844625	0.293844045	0.143048455
773	0.21875445	0.294233714	0.143275186
774	0.2190797	0.294645441	0.143513959
775	0.2193544	0.295012607	0.143696193
776	0.21962475	0.295366765	0.143882735
777	0.2199229	0.295725674	0.144120126
778	0.22019865	0.296078272	0.144319028
779	0.2204736	0.29643248	0.14451472
780	0.22075225	0.29679111	0.14471339
781	0.2210841	0.297210863	0.144957337
782	0.2213693	0.297585474	0.145153126
783	0.2216352	0.297939937	0.145330463
784	0.22196435	0.298345165	0.145583535
785	0.2223097	0.298774586	0.145844814
786	0.22262975	0.299182611	0.146076889
787	0.22286935	0.29951096	0.14622774
788	0.22314635	0.299873508	0.146419192
789	0.2234389	0.30024857	0.14662923
790	0.2237423	0.30063023	0.14685437
791	0.224058	0.301029307	0.147086693
792	0.2243793	0.301433284	0.147325316
793	0.22469605	0.301831806	0.147560294
794	0.2249655	0.302182271	0.147748729
795	0.2252434	0.302536709	0.147950091
796	0.22552995	0.302902337	0.148157563
797	0.22582885	0.303292185	0.148365515
798	0.22613525	0.303681529	0.148588971
799	0.2264306	0.304057922	0.148803278
800	0.22670375	0.304410522	0.148996978
801	0.22698555	0.304776923	0.149194177
802	0.2272746	0.305145564	0.149403636
803	0.22756525	0.305512787	0.149617713
804	0.227818	0.305848154	0.149787846
805	0.2281279	0.306238494	0.150017306
806	0.2284444	0.306633833	0.150254967
807	0.22870745	0.306974277	0.150440623
808	0.2289711	0.307309875	0.150632325
809	0.2292489	0.307647781	0.150850019
810	0.2295466	0.307988913	0.151104287
811	0.2297001	0.308198076	0.151202124
812	0.22985485	0.308401032	0.151308668
813	0.23002315	0.308610973	0.151435327
814	0.23023005	0.3088609	0.1515992
815	0.23051745	0.30920997	0.15182493
816	0.2308478	0.309620094	0.152075506
817	0.2311822	0.310059933	0.152304467
818	0.23153965	0.310530123	0.152549177
819	0.23189075	0.3109843	0.1527972
820	0.2322362	0.31141902	0.15305338
821	0.2324114	0.311660196	0.153162604
822	0.23265315	0.311972267	0.153334033
823	0.2329574	0.312349589	0.153565211
824	0.23336785	0.312871227	0.153864473
825	0.2337258	0.313313116	0.154138484
826	0.23405695	0.313722692	0.154391208
827	0.23433865	0.314098937	0.154578363
828	0.23459685	0.3144528	0.1547409
829	0.2348794	0.31483657	0.15492223
830	0.23521705	0.315285341	0.155148759
831	0.2355747	0.315737138	0.155412262
832	0.2359036	0.316150087	0.155657113
833	0.2362016	0.31652318	0.15588002
834	0.2365544	0.31696045	0.15614835
835	0.23683995	0.31732953	0.15635037
836	0.237096	0.317668022	0.156523978
837	0.2373768	0.318028727	0.156724873
838	0.2376988	0.318424512	0.156973088
839	0.2380137	0.318814655	0.157212745
840	0.2382947	0.319176973	0.157412427
841	0.23860145	0.31957239	0.15763051
842	0.23887455	0.319930563	0.157818537
843	0.23911345	0.320249243	0.157977657
844	0.2394405	0.320652617	0.158228383
845	0.2397651	0.321055895	0.158474305
846	0.2400838	0.321452315	0.158715285
847	0.24038175	0.321813317	0.158950183
848	0.24064825	0.322146499	0.159150001
849	0.2408952	0.322467256	0.159323144
850	0.24111325	0.322768454	0.159458046
851	0.24143555	0.323156837	0.159714263
852	0.24174585	0.323543837	0.159947863
853	0.242035	0.323925696	0.160144304
854	0.24235545	0.324317018	0.160393882
855	0.2426206	0.324639767	0.160601433
856	0.2428433	0.324915109	0.160771491
857	0.2430716	0.325220771	0.160922429
858	0.24336765	0.325605365	0.161129935
859	0.24368745	0.326007678	0.161367222
860	0.24400065	0.326377634	0.161623666
861	0.2442836	0.326728689	0.161838511
862	0.24458175	0.327100183	0.162063317
863	0.2449048	0.327501952	0.162307648
864	0.2450934	0.327762686	0.162424114
865	0.24535075	0.328101462	0.162600038
866	0.24565365	0.328487286	0.162820014
867	0.24592345	0.328808391	0.163038509
868	0.2462081	0.329155233	0.163260967
869	0.2465206	0.32953994	0.16350126
870	0.24689815	0.330006096	0.163790204
871	0.2471186	0.330307363	0.163929837
