Wavelength	Mean	Std+	Std-
350	0.077349	0.089408755	0.065289245
351	0.077344	0.089399528	0.065288472
352	0.0775022	0.08957003	0.06543437
353	0.077953733	0.090012527	0.06589494
354	0.078233467	0.090310215	0.066156718
355	0.078325133	0.09044274	0.066207527
356	0.0784898	0.090570039	0.066409561
357	0.0785498	0.090647066	0.066452534
358	0.078606333	0.090740141	0.066472525
359	0.078882667	0.091009311	0.066756023
360	0.079348133	0.091458341	0.067237925
361	0.079805867	0.091921667	0.067690066
362	0.080146067	0.092316372	0.067975761
363	0.080574133	0.092782648	0.068365618
364	0.080878	0.093117476	0.068638524
365	0.081032267	0.093296399	0.068768134
366	0.081112133	0.093387388	0.068836879
367	0.081426533	0.093706687	0.06914638
368	0.081880333	0.094160935	0.069599731
369	0.082302133	0.094580393	0.070023874
370	0.0824338	0.094721208	0.070146392
371	0.082539133	0.094825899	0.070252367
372	0.0827956	0.095053335	0.070537865
373	0.083078667	0.095389811	0.070767523
374	0.083438667	0.095799111	0.071078222
375	0.083887867	0.096280338	0.071495395
376	0.084337533	0.096765686	0.07190938
377	0.084708133	0.097186053	0.072230213
378	0.085038267	0.097567763	0.07250877
379	0.085424933	0.097958083	0.072891784
380	0.085676867	0.098221634	0.0731321
381	0.085918533	0.098466095	0.073370972
382	0.0862536	0.098775249	0.073731951
383	0.086593067	0.099132725	0.074053408
384	0.087053133	0.099623192	0.074483074
385	0.0876628	0.10027034	0.07505526
386	0.088155	0.100835131	0.075474869
387	0.088387933	0.101141472	0.075634394
388	0.0884888	0.101304884	0.075672716
389	0.08892	0.101733706	0.076106294
390	0.089315933	0.102130559	0.076501308
391	0.089653867	0.102475508	0.076832225
392	0.089895467	0.102735692	0.077055241
393	0.090246467	0.103095346	0.077397588
394	0.090604467	0.103472594	0.077736339
395	0.090938867	0.103840278	0.078037456
396	0.0912582	0.104176597	0.078339803
397	0.091704	0.104662417	0.078745583
398	0.092193933	0.105205656	0.079182211
399	0.092489333	0.105546381	0.079432286
400	0.0926688	0.105730819	0.079606781
401	0.092812067	0.105862933	0.0797612
402	0.092992333	0.106030433	0.079954234
403	0.093164267	0.106185033	0.0801435
404	0.093397533	0.106392078	0.080402989
405	0.093720933	0.106677395	0.080764471
406	0.093884667	0.106834324	0.080935009
407	0.094135667	0.107083877	0.081187457
408	0.094448267	0.10740062	0.081495913
409	0.0946798	0.10765187	0.08170773
410	0.094930533	0.10791179	0.081949277
411	0.095190067	0.108175654	0.082204479
412	0.0954594	0.108449205	0.082469595
413	0.095718133	0.108701069	0.082735198
414	0.0959812	0.108956051	0.083006349
415	0.096259667	0.109227603	0.08329173
416	0.096507933	0.109468511	0.083547355
417	0.0967196	0.109668769	0.083770431
418	0.096910333	0.109845972	0.083974695
419	0.0971946	0.110127895	0.084261305
420	0.097446267	0.110377582	0.084514952
421	0.097689133	0.110619079	0.084759188
422	0.097959333	0.110888654	0.085030012
423	0.0982024	0.111130662	0.085274138
424	0.098455133	0.11137587	0.085534397
425	0.098737133	0.11164019	0.085834077
426	0.099012133	0.111896536	0.086127731
427	0.099269333	0.112141467	0.086397199
428	0.099515	0.112381555	0.086648445
429	0.099842867	0.11270629	0.086979443
430	0.100167733	0.113030008	0.087305459
431	0.100486467	0.113351833	0.0876211
432	0.100798133	0.113675205	0.087921062
433	0.101121133	0.114009372	0.088232894
434	0.101426733	0.114324584	0.088528883
435	0.101699867	0.114604922	0.088794811
436	0.1019354	0.114825974	0.089044826
437	0.1021892	0.1150571	0.0893213
438	0.102463467	0.115302973	0.08962396
439	0.102719467	0.115545503	0.08989343
440	0.1029954	0.115809774	0.090181026
441	0.103284333	0.116089855	0.090478811
442	0.1035856	0.116388988	0.090782212
443	0.103823467	0.116624158	0.091022776
444	0.104043667	0.116834612	0.091252722
445	0.1042696	0.117036636	0.091502564
446	0.104479	0.117228467	0.091729533
447	0.1047218	0.117455676	0.091987924
448	0.105003733	0.117722877	0.09228459
449	0.105272267	0.117979532	0.092565001
450	0.105474	0.118172248	0.092775752
451	0.105641867	0.118331587	0.092952147
452	0.105846	0.118518527	0.093173473
453	0.106049667	0.118696222	0.093403111
454	0.106249667	0.118872668	0.093626665
455	0.106442067	0.119053983	0.093830151
456	0.106691733	0.119295223	0.094088244
457	0.106908867	0.119505144	0.094312589
458	0.107074467	0.119663685	0.094485248
459	0.107255	0.119819147	0.094690853
460	0.107419933	0.119961765	0.094878102
461	0.107577067	0.120099333	0.0950548
462	0.107746667	0.120255349	0.095237984
463	0.107909933	0.12039817	0.095421697
464	0.108081	0.120546734	0.095615266
465	0.108274733	0.120719625	0.095829842
466	0.108410867	0.120836582	0.095985152
467	0.1085518	0.120959559	0.096144041
468	0.108711467	0.121102337	0.096320596
469	0.108939733	0.121319032	0.096560435
470	0.109120867	0.121483092	0.096758641
471	0.109263933	0.121605731	0.096922136
472	0.1093938	0.121718734	0.097068866
473	0.109542733	0.121845889	0.097239578
474	0.109697067	0.121979539	0.097414595
475	0.1098464	0.122115998	0.097576802
476	0.1100296	0.122278025	0.097781175
477	0.110209667	0.122437226	0.097982107
478	0.110378067	0.122587802	0.098168331
479	0.110567533	0.12275613	0.098378937
480	0.110750067	0.122919731	0.098580402
481	0.110923667	0.12307399	0.098773343
482	0.111076	0.123193041	0.098958959
483	0.111232333	0.123325523	0.099139144
484	0.111387	0.12345977	0.09931423
485	0.111526667	0.123578672	0.099474661
486	0.11172	0.123745256	0.099694744
487	0.111936667	0.12394049	0.099932843
488	0.112170467	0.124162668	0.100178265
489	0.112412533	0.12439592	0.100429147
490	0.112627067	0.1245956	0.100658533
491	0.112813067	0.124760768	0.100865366
492	0.112974733	0.124891323	0.101058144
493	0.11317	0.125064349	0.101275651
494	0.113378467	0.125253498	0.101503435
495	0.113578333	0.125427348	0.101729319
496	0.1137558	0.125584958	0.101926642
497	0.113935733	0.125740667	0.1021308
498	0.114130267	0.125901574	0.102358959
499	0.114374867	0.126121554	0.102628179
500	0.1145936	0.126318282	0.102868918
501	0.114788867	0.126493203	0.10308453
502	0.115019133	0.126700748	0.103337518
503	0.1152326	0.126897763	0.103567437
504	0.115437733	0.127085832	0.103789635
505	0.115646933	0.127265426	0.104028441
506	0.1158636	0.127456893	0.104270307
507	0.116081333	0.127649135	0.104513532
508	0.116299267	0.127839515	0.104759019
509	0.116495867	0.128011134	0.104980599
510	0.116717533	0.128209472	0.105225595
511	0.116961933	0.12843122	0.105492647
512	0.1171584	0.128599664	0.105717136
513	0.117356533	0.128769686	0.105943381
514	0.1175562	0.128941641	0.106170759
515	0.1177528	0.129112283	0.106393317
516	0.117961467	0.129297784	0.106625149
517	0.118212533	0.129523438	0.106901629
518	0.1185354	0.129815188	0.107255612
519	0.118791067	0.130050659	0.107531474
520	0.119055733	0.130296403	0.107815063
521	0.1193286	0.130550285	0.108106915
522	0.119505867	0.130699724	0.108312009
523	0.119677533	0.130840435	0.108514632
524	0.119852067	0.130983202	0.108720932
525	0.120049667	0.131152371	0.108946962
526	0.120287733	0.131361581	0.109213885
527	0.120542467	0.131586262	0.109498671
528	0.120808	0.131819221	0.109796779
529	0.1210548	0.132047049	0.110062551
530	0.121276	0.132245755	0.110306245
531	0.1214706	0.132413154	0.110528046
532	0.121683867	0.132598108	0.110769626
533	0.1219012	0.132787573	0.111014827
534	0.122127667	0.13298696	0.111268373
535	0.1223792	0.13321336	0.11154504
536	0.1225868	0.133394509	0.111779091
537	0.122792867	0.133573645	0.112012088
538	0.123031533	0.133785172	0.112277895
539	0.1232406	0.133967782	0.112513418
540	0.123456667	0.134157052	0.112756282
541	0.123685	0.134358388	0.113011612
542	0.123916733	0.134564142	0.113269324
543	0.124137333	0.13475958	0.113515086
544	0.124349	0.134946274	0.113751726
545	0.124561333	0.13513098	0.113991686
546	0.1247556	0.135300985	0.114210215
547	0.124956867	0.135478092	0.114435641
548	0.125192267	0.135685382	0.114699151
549	0.125432533	0.135900263	0.114964804
550	0.125659667	0.136103234	0.115216099
551	0.1258686	0.136288988	0.115448212
552	0.126096467	0.136492248	0.115700685
553	0.126338667	0.136710881	0.115966452
554	0.1265822	0.136931349	0.116233051
555	0.126765933	0.137090572	0.116441295
556	0.1269606	0.137262341	0.116658859
557	0.127171267	0.137449818	0.116892715
558	0.127411533	0.137664514	0.117158553
559	0.127646867	0.13787935	0.117414383
560	0.127880467	0.138093685	0.117667248
561	0.128111067	0.138305602	0.117916531
562	0.1282978	0.138468291	0.118127309
563	0.128499667	0.138646949	0.118352384
564	0.128717	0.138842327	0.118591673
565	0.128946067	0.139053721	0.118838412
566	0.1291704	0.139256985	0.119083815
567	0.129393333	0.139458334	0.119328333
568	0.129616133	0.139662231	0.119570036
569	0.1298288	0.139854423	0.119803177
570	0.130056933	0.140059545	0.120054321
571	0.130312133	0.140289015	0.120335252
572	0.1305228	0.140482874	0.120562726
573	0.130745333	0.140689629	0.120801037
574	0.130980133	0.14090887	0.121051397
575	0.1312152	0.141131072	0.121299328
576	0.131448533	0.141347953	0.121549113
577	0.131680667	0.141561349	0.121799984
578	0.131906867	0.141767133	0.1220466
579	0.132167533	0.142004361	0.122330706
580	0.132416267	0.142233062	0.122599472
581	0.132631333	0.142434803	0.122827864
582	0.132856867	0.142647208	0.123066525
583	0.133072333	0.142846833	0.123297833
584	0.133279067	0.143034507	0.123523626
585	0.133493133	0.143230472	0.123755795
586	0.133708333	0.14342295	0.123993717
587	0.133920667	0.143611489	0.124229845
588	0.134114467	0.143788018	0.124440916
589	0.1343596	0.144005488	0.124713712
590	0.134619733	0.144240141	0.124999326
591	0.134878067	0.144482611	0.125273523
592	0.135111267	0.144702437	0.125520096
593	0.135353133	0.144928848	0.125777419
594	0.135607867	0.145165184	0.126050549
595	0.1358612	0.145397203	0.126325197
596	0.136134	0.14565605	0.12661195
597	0.136409867	0.14592111	0.126898624
598	0.136647733	0.146143137	0.12715233
599	0.136933867	0.146411503	0.12745623
600	0.137236	0.146694031	0.127777969
601	0.137537133	0.146973148	0.128101118
602	0.137841533	0.147259862	0.128423205
603	0.138126267	0.147526079	0.128726454
604	0.138387533	0.147767882	0.129007185
605	0.138631733	0.148001258	0.129262208
606	0.138899533	0.148258761	0.129540306
607	0.139178067	0.148524576	0.129831558
608	0.139428067	0.148749171	0.130106962
609	0.1396674	0.148967667	0.130367133
610	0.139910133	0.149192962	0.130627305
611	0.140163933	0.149433312	0.130894554
612	0.1404106	0.149663879	0.131157321
613	0.140661133	0.149900956	0.131421311
614	0.140915533	0.150145946	0.13168512
615	0.1410944	0.150312209	0.131876591
616	0.141348933	0.150557594	0.132140273
617	0.141642333	0.150843509	0.132441157
618	0.141870333	0.151057979	0.132682688
619	0.142109333	0.15129028	0.132928387
620	0.142365267	0.151540514	0.13319002
621	0.1426512	0.151817437	0.133484963
622	0.142865	0.152027495	0.133702505
623	0.143115533	0.15227481	0.133956257
624	0.143426067	0.152581133	0.134271
625	0.143692867	0.152845532	0.134540201
626	0.1439754	0.153127133	0.134823667
627	0.144265467	0.153416326	0.135114607
628	0.1445448	0.15369103	0.13539857
629	0.144839333	0.153982752	0.135695915
630	0.1451334	0.154275132	0.135991668
631	0.145415467	0.154556647	0.136274286
632	0.145720667	0.154863587	0.136577747
633	0.146027067	0.15517308	0.136881054
634	0.146330667	0.155481019	0.137180314
635	0.1467382	0.155894616	0.137581784
636	0.147087267	0.156247797	0.137926737
637	0.147394867	0.156558742	0.138230991
638	0.147727133	0.156896752	0.138557515
639	0.1480478	0.157231408	0.138864192
640	0.148374333	0.157574114	0.139174553
641	0.1487292	0.157941256	0.139517144
642	0.1490688	0.158295339	0.139842261
643	0.149400533	0.158642437	0.140158629
644	0.149727467	0.158985187	0.140469746
645	0.150073267	0.159349327	0.140797206
646	0.150411133	0.159705884	0.141116383
647	0.1507476	0.160062313	0.141432887
648	0.151121067	0.160459377	0.141782756
649	0.151533867	0.160899219	0.142168515
650	0.1519594	0.161354355	0.142564445
651	0.152372733	0.161798259	0.142947208
652	0.1527424	0.162206526	0.143278274
653	0.153104667	0.162606709	0.143602624
654	0.153477667	0.163013696	0.143941637
655	0.153877	0.163464693	0.144289307
656	0.154324867	0.163972582	0.144677152
657	0.154793267	0.164506156	0.145080377
658	0.155213667	0.164988571	0.145438763
659	0.155615133	0.165448404	0.145781863
660	0.1560194	0.165911678	0.146127122
661	0.156463467	0.166419911	0.146507023
662	0.156869133	0.166896521	0.146841746
663	0.1572742	0.167375842	0.147172558
664	0.1576936	0.167871192	0.147516008
665	0.158090933	0.168345668	0.147836199
666	0.1585156	0.168851903	0.148179297
667	0.158965533	0.169388259	0.148542808
668	0.159381933	0.169896846	0.14886702
669	0.159812267	0.170412565	0.149211968
670	0.160259933	0.170945933	0.149573934
671	0.160738667	0.171523382	0.149953952
672	0.161171133	0.172054385	0.150287881
673	0.1616048	0.172586418	0.150623182
674	0.162064933	0.173144169	0.150985698
675	0.162512	0.173698664	0.151325336
676	0.162963667	0.17426317	0.151664163
677	0.1634224	0.174840161	0.152004639
678	0.163896733	0.175438556	0.152354911
679	0.164368333	0.176032002	0.152704665
680	0.164845	0.17662989	0.15306011
681	0.1653494	0.177257363	0.153441437
682	0.165844133	0.177875307	0.153812959
683	0.166319133	0.178470126	0.154168141
684	0.1667656	0.179029905	0.154501295
685	0.1671786	0.179541587	0.154815613
686	0.167667	0.180153576	0.155180424
687	0.168240067	0.180880717	0.155599417
688	0.168803133	0.181604939	0.156001328
689	0.1693696	0.182313851	0.156425349
690	0.1699314	0.183003226	0.156859574
691	0.1704938	0.183684934	0.157302666
692	0.171016067	0.184328112	0.157704022
693	0.171566667	0.185006192	0.158127141
694	0.172206	0.185786574	0.158625426
695	0.1728764	0.186618639	0.159134161
696	0.173517267	0.187415257	0.159619276
697	0.1741242	0.188168399	0.160080001
698	0.174712867	0.18890025	0.160525483
699	0.1753226	0.189662973	0.160982227
700	0.175947467	0.190451137	0.161443796
701	0.1765658	0.191247717	0.161883883
702	0.1772356	0.192105776	0.162365424
703	0.177907667	0.192966737	0.162848596
704	0.178551733	0.193795507	0.163307959
705	0.179219067	0.194646709	0.163791424
706	0.1798912	0.195506478	0.164275922
707	0.180563933	0.196371927	0.164755939
708	0.181180467	0.197194212	0.165166721
709	0.1818268	0.198046328	0.165607272
710	0.182487333	0.198914248	0.166060418
711	0.183107933	0.199750123	0.166465744
712	0.183710667	0.200557806	0.166863528
713	0.184281333	0.201322332	0.167240335
714	0.1847892	0.202006662	0.167571738
715	0.185158133	0.20249576	0.167820506
716	0.1854952	0.202954486	0.168035914
717	0.1858196	0.203418373	0.168220827
718	0.186479333	0.20433635	0.168622317
719	0.187306	0.205477815	0.169134185
720	0.188196467	0.206700016	0.169692917
721	0.188922533	0.207684041	0.170161026
722	0.189469067	0.208436628	0.170501505
723	0.189990533	0.209164627	0.17081644
724	0.190610667	0.210036127	0.171185206
725	0.191290667	0.210984192	0.171597142
726	0.191971333	0.211931982	0.172010685
727	0.1926442	0.212867818	0.172420582
728	0.193320267	0.213830244	0.172810289
729	0.1940576	0.21486112	0.17325408
730	0.194844467	0.215949135	0.173739798
731	0.195679667	0.217125011	0.174234322
732	0.1964828	0.218247878	0.174717722
733	0.1972418	0.219308927	0.175174673
734	0.197930667	0.220281581	0.175579752
735	0.198639533	0.221279521	0.175999545
736	0.199348933	0.222279188	0.176418679
737	0.2000526	0.223272929	0.176832271
738	0.2007536	0.224273692	0.177233508
739	0.201446267	0.225266973	0.17762556
740	0.202128733	0.226249335	0.178008132
741	0.202810333	0.227237983	0.178382684
742	0.2034854	0.228212293	0.178758507
743	0.204169267	0.229192788	0.179145745
744	0.204901267	0.230229922	0.179572612
745	0.205574	0.231199499	0.179948501
746	0.206233	0.232156088	0.180309912
747	0.206897133	0.233123444	0.180670823
748	0.207559467	0.234079998	0.181038936
749	0.208219733	0.235039206	0.18140026
750	0.208877467	0.236000098	0.181754835
751	0.209555333	0.236985326	0.182125341
752	0.2102308	0.237971239	0.182490361
753	0.210902	0.238952619	0.182851381
754	0.211568467	0.23992379	0.183213144
755	0.212236133	0.240896121	0.183576146
756	0.212853467	0.241782205	0.183924728
757	0.213405667	0.242546921	0.184264412
758	0.2133724	0.242447248	0.184297552
759	0.213466867	0.242632859	0.184300875
760	0.2139162	0.243503819	0.184328581
761	0.214774867	0.244811238	0.184738495
762	0.21561	0.246057279	0.185162721
763	0.216494933	0.247363637	0.18562623
764	0.217437733	0.248752872	0.186122594
765	0.218420533	0.250151282	0.186689785
766	0.2192994	0.251402142	0.187196658
767	0.220074867	0.252527447	0.187622287
768	0.2208206	0.25360987	0.18803133
769	0.2215486	0.254668747	0.188428453
770	0.2222678	0.255717306	0.188818294
771	0.222958333	0.256744239	0.189172427
772	0.2236436	0.257759714	0.189527486
773	0.224325667	0.2587707	0.189880633
774	0.2249974	0.259779644	0.190215156
775	0.225639733	0.26074481	0.190534656
776	0.226296333	0.261725423	0.190867243
777	0.227007267	0.26277373	0.191240803
778	0.227697933	0.263796529	0.191599338
779	0.2283774	0.264810934	0.191943866
780	0.229045733	0.265818537	0.19227293
781	0.2297142	0.26680359	0.19262481
782	0.230373333	0.267790701	0.192955965
783	0.231029467	0.268785308	0.193273625
784	0.231684333	0.269780299	0.193588368
785	0.232341867	0.270760783	0.19392295
786	0.232990267	0.271727484	0.194253049
787	0.233607333	0.272662397	0.19455227
788	0.2342556	0.27363664	0.19487456
789	0.234907133	0.274621342	0.195192925
790	0.235556267	0.275611304	0.195501229
791	0.236267733	0.276668056	0.195867411
792	0.236979133	0.277729928	0.196228339
793	0.237680133	0.278780917	0.19657935
794	0.238322933	0.279746033	0.196899833
795	0.238956933	0.280712333	0.197201534
796	0.239610267	0.281707607	0.197512926
797	0.240324333	0.282777697	0.197870969
798	0.240992267	0.283774363	0.19821017
799	0.241653533	0.284763976	0.198543091
800	0.2423064	0.285745761	0.198867039
801	0.243023467	0.286808358	0.199238575
802	0.2437222	0.28785633	0.19958807
803	0.244412333	0.288901082	0.199923584
804	0.2451252	0.28997568	0.20027472
805	0.245847667	0.291051061	0.200644272
806	0.2465524	0.292099571	0.201005229
807	0.247198333	0.293075459	0.201321208
808	0.2477824	0.293970181	0.201594619
809	0.248369333	0.294866358	0.201872308
810	0.248974867	0.295782173	0.20216756
811	0.249414133	0.296457961	0.202370305
812	0.249773467	0.297031189	0.202515744
813	0.250078667	0.297538402	0.202618932
814	0.250451733	0.29813495	0.202768517
815	0.25095	0.298910172	0.202989828
816	0.251581533	0.299868982	0.203294085
817	0.252431067	0.301117176	0.203744957
818	0.253357133	0.302483664	0.204230603
819	0.254254933	0.303819516	0.204690351
820	0.255088133	0.305075936	0.205100331
821	0.255375933	0.305509575	0.205242292
822	0.255897267	0.306313455	0.205481078
823	0.2566734	0.307510822	0.205835978
824	0.2577892	0.309145083	0.206433317
825	0.258606	0.310343298	0.206868702
826	0.259247467	0.311299074	0.20719586
827	0.259729933	0.312068014	0.207391853
828	0.260429267	0.313122763	0.20773577
829	0.261192133	0.314263071	0.208121196
830	0.2619686	0.315424352	0.208512848
831	0.262730933	0.316543492	0.208918375
832	0.263481867	0.317669616	0.209294117
833	0.264223733	0.318804009	0.209643458
834	0.265080533	0.320059864	0.210101203
835	0.265887867	0.321249409	0.210526324
836	0.2666492	0.322382255	0.210916145
837	0.267329867	0.323425914	0.211233819
838	0.268016933	0.324460025	0.211573842
839	0.268726333	0.325513399	0.211939268
840	0.2694734	0.326606643	0.212340157
841	0.270168667	0.327637727	0.212699606
842	0.270856933	0.328674131	0.213039736
843	0.2715374	0.329715594	0.213359206
844	0.272151133	0.330669069	0.213633198
845	0.272859267	0.331710497	0.214008037
846	0.273596933	0.332780015	0.214413852
847	0.274203133	0.333725983	0.214680283
848	0.274771933	0.334582918	0.214960948
849	0.275384067	0.335488504	0.215279629
850	0.276087333	0.33651938	0.215655286
851	0.276687333	0.33747069	0.215903976
852	0.277262067	0.338349087	0.216175046
853	0.277842267	0.339183428	0.216501105
854	0.2785678	0.340233607	0.216901993
855	0.2793278	0.341371216	0.217284384
856	0.280069133	0.342500019	0.217638248
857	0.280764	0.343543939	0.217984061
858	0.281419133	0.344528876	0.218309391
859	0.2820598	0.345493748	0.218625852
860	0.2826838	0.346436823	0.218930777
