Wavelength	Mean	Std+	Std-
350	0.068202143	0.081732329	0.054671956
351	0.068372429	0.08197659	0.054768267
352	0.068188	0.0817996	0.0545764
353	0.068523286	0.082150041	0.05489653
354	0.068920143	0.082537027	0.055303258
355	0.069324143	0.082905432	0.055742854
356	0.069544857	0.083062271	0.056027443
357	0.069703714	0.083244885	0.056162544
358	0.069966571	0.083588034	0.056345108
359	0.070778714	0.084507095	0.057050333
360	0.071203571	0.085052553	0.05735459
361	0.071490714	0.085428016	0.057553413
362	0.071736	0.085691308	0.057780692
363	0.072192286	0.086185603	0.058198968
364	0.072667571	0.086683417	0.058651726
365	0.073125857	0.087149847	0.059101867
366	0.073360714	0.087510237	0.059211192
367	0.073586571	0.087834382	0.059338761
368	0.073849571	0.088151017	0.059548126
369	0.074301429	0.08852182	0.060081037
370	0.074689	0.088945238	0.060432762
371	0.075047429	0.089355588	0.060739269
372	0.075384714	0.089693031	0.061076398
373	0.075796143	0.090222557	0.061369728
374	0.076248571	0.090766343	0.0617308
375	0.076735429	0.091296473	0.062174384
376	0.077031143	0.09168201	0.062380276
377	0.077361714	0.09207102	0.062652409
378	0.077729286	0.092474545	0.062984026
379	0.078141857	0.092918203	0.063365511
380	0.078459857	0.093308349	0.063611365
381	0.078696429	0.093625991	0.063766867
382	0.078827286	0.093821637	0.063832934
383	0.079573286	0.094561339	0.064585233
384	0.080017571	0.095066177	0.064968966
385	0.079981429	0.09518599	0.064776867
386	0.080818286	0.096180925	0.065455646
387	0.081437571	0.096953385	0.065921758
388	0.081889857	0.097554315	0.066225399
389	0.082304143	0.098123536	0.066484749
390	0.082684571	0.098518002	0.066851141
391	0.083045571	0.098845099	0.067246044
392	0.083403714	0.099188316	0.067619113
393	0.083589714	0.099449521	0.067729907
394	0.083873857	0.099860761	0.067886954
395	0.084305857	0.100461634	0.06815008
396	0.085069429	0.101409505	0.068729352
397	0.085533714	0.102006247	0.069061181
398	0.085844286	0.102418887	0.069269685
399	0.086452286	0.103161653	0.069742919
400	0.086735143	0.103447122	0.070023164
401	0.086907857	0.103599051	0.070216663
402	0.087139143	0.103880497	0.070397788
403	0.087317857	0.10403274	0.070602974
404	0.087519857	0.104219708	0.070820006
405	0.087771571	0.104491415	0.071051728
406	0.088334429	0.105143824	0.071525034
407	0.088764143	0.105640704	0.071887582
408	0.089083571	0.106011322	0.072155821
409	0.089431	0.106436593	0.072425407
410	0.089742286	0.10683743	0.072647141
411	0.090044143	0.107222183	0.072866103
412	0.090375857	0.107606182	0.073145532
413	0.090797143	0.108047583	0.073546703
414	0.091151	0.108438599	0.073863401
415	0.091381143	0.108742818	0.074019468
416	0.091778857	0.109181264	0.074376451
417	0.092095571	0.109541192	0.074649951
418	0.092348714	0.109842238	0.074855191
419	0.092744429	0.110294875	0.075193982
420	0.093103429	0.110713731	0.075493126
421	0.093443143	0.111113195	0.075773091
422	0.093783143	0.111508857	0.076057429
423	0.094057571	0.111835083	0.07628006
424	0.094355143	0.112180437	0.076529849
425	0.094722571	0.112591119	0.076854024
426	0.094940714	0.112838649	0.077042779
427	0.095234286	0.113165232	0.07730334
428	0.095611143	0.113582111	0.077640175
429	0.095942143	0.113995471	0.077888814
430	0.096324571	0.114464264	0.078184879
431	0.096709	0.114945583	0.078472417
432	0.097007	0.115375739	0.078638261
433	0.097408571	0.115876489	0.078940654
434	0.097786571	0.11632706	0.079246083
435	0.098078429	0.116660812	0.079496045
436	0.098303571	0.116884272	0.079722871
437	0.098589143	0.117184895	0.07999339
438	0.098934	0.117566605	0.080301395
439	0.099160857	0.117841324	0.080480391
440	0.099462143	0.118194448	0.080729837
441	0.099787286	0.118575952	0.080998619
442	0.100032286	0.118885473	0.081179098
443	0.100319286	0.119230585	0.081407987
444	0.100606714	0.119570332	0.081643096
445	0.100869286	0.11987736	0.081861211
446	0.101160429	0.120208619	0.082112238
447	0.101437286	0.120539135	0.082335436
448	0.101699	0.120868081	0.082529919
449	0.101994571	0.121199957	0.082789186
450	0.102253143	0.121504794	0.083001492
451	0.102495	0.121791401	0.083198599
452	0.102766	0.122072251	0.083459749
453	0.103034857	0.122377797	0.083691917
454	0.103274429	0.122664393	0.083884464
455	0.103449429	0.122887534	0.084011323
456	0.103816143	0.123312543	0.084319743
457	0.104096	0.12365496	0.08453704
458	0.104237	0.123861338	0.084612662
459	0.104520571	0.124189702	0.084851441
460	0.104786714	0.124494818	0.085078611
461	0.105039143	0.124784713	0.085293573
462	0.105278571	0.125074382	0.085482761
463	0.105520571	0.125351601	0.085689542
464	0.105750571	0.125611499	0.085889644
465	0.105948286	0.12583909	0.086057481
466	0.106208	0.126148905	0.086267095
467	0.106475857	0.126471358	0.086480357
468	0.106740714	0.126792998	0.086688431
469	0.106961286	0.127077423	0.086845148
470	0.107214286	0.127376529	0.087052043
471	0.107482286	0.127678298	0.087286273
472	0.107697857	0.127940226	0.087455488
473	0.107894429	0.128184287	0.08760457
474	0.108087143	0.128424765	0.087749521
475	0.108289	0.128673785	0.087904215
476	0.108497714	0.128911556	0.088083873
477	0.108716857	0.129171448	0.088262266
478	0.108950429	0.129466151	0.088434706
479	0.109228	0.129760705	0.088695295
480	0.10948	0.130039369	0.088920631
481	0.109699143	0.130291895	0.089106391
482	0.109834286	0.130444237	0.089224335
483	0.110020857	0.130637893	0.089403822
484	0.110217286	0.130845186	0.089589385
485	0.110369714	0.131032927	0.089706502
486	0.110659714	0.131385201	0.089934227
487	0.110974857	0.131768501	0.090181213
488	0.111283429	0.132144684	0.090422173
489	0.111472429	0.132422898	0.09052196
490	0.111673429	0.132668603	0.090678254
491	0.11188	0.132884912	0.090875088
492	0.112047571	0.133082935	0.091012208
493	0.112310143	0.133381048	0.091239238
494	0.112585571	0.133693946	0.091477196
495	0.112761714	0.13390697	0.091616459
496	0.112947143	0.134125516	0.09176877
497	0.113146571	0.134355694	0.091937449
498	0.113366857	0.13460359	0.092130124
499	0.113653429	0.134922621	0.092384236
500	0.113907286	0.135215413	0.092599159
501	0.114128857	0.135484332	0.092773382
502	0.114368	0.135786974	0.092949026
503	0.114633429	0.136112965	0.093153892
504	0.114893143	0.13642718	0.093359106
505	0.115092714	0.136668438	0.09351699
506	0.115336143	0.136949069	0.093723217
507	0.115588	0.1372365	0.0939395
508	0.115837571	0.137520278	0.094154865
509	0.116120714	0.137831602	0.094409827
510	0.116382857	0.138134031	0.094631683
511	0.116621429	0.138423549	0.094819308
512	0.116831857	0.138670725	0.094992989
513	0.117060429	0.138939667	0.09518119
514	0.117306429	0.139225643	0.095387214
515	0.117576	0.139523944	0.095628056
516	0.117886429	0.139893274	0.095879584
517	0.118196	0.140279448	0.096112552
518	0.118478714	0.140655806	0.096301622
519	0.118787143	0.141056004	0.096518281
520	0.119077857	0.141417826	0.096737888
521	0.119348429	0.141736402	0.096960455
522	0.119680857	0.14208907	0.097272644
523	0.119961714	0.142403468	0.097519961
524	0.120214429	0.142696169	0.097732688
525	0.120469857	0.142986955	0.09795276
526	0.120771857	0.143350801	0.098192913
527	0.121089	0.143736712	0.098441288
528	0.121411571	0.144125613	0.098697529
529	0.121750429	0.144532014	0.098968843
530	0.122069857	0.144900508	0.099239207
531	0.122363857	0.145223541	0.099504174
532	0.122636143	0.145543935	0.09972835
533	0.122918714	0.14588465	0.099952779
534	0.123213571	0.146243728	0.100183415
535	0.123528857	0.146618643	0.100439071
536	0.123834571	0.146982006	0.100687137
537	0.124152	0.147348583	0.100955417
538	0.124504429	0.147734656	0.101274201
539	0.124767857	0.148063607	0.101472108
540	0.125052429	0.14841797	0.101686887
541	0.125375714	0.148811218	0.10194021
542	0.125709857	0.149222106	0.102197609
543	0.126020714	0.149595211	0.102446217
544	0.126318286	0.149941211	0.102695361
545	0.126640286	0.150299708	0.102980864
546	0.126942857	0.150660768	0.103224946
547	0.127253857	0.151036124	0.10347159
548	0.127604857	0.151445329	0.103764385
549	0.127926286	0.151823123	0.104029448
550	0.128215857	0.152171354	0.10426036
551	0.128468857	0.152485297	0.104452418
552	0.128785714	0.152849881	0.104721548
553	0.129092714	0.153209664	0.104975764
554	0.129391429	0.153563877	0.10521898
555	0.129679143	0.15389759	0.105460696
556	0.129968	0.154227952	0.105708048
557	0.130244714	0.154553061	0.105936368
558	0.130484857	0.154867252	0.106102462
559	0.130796	0.155237432	0.106354568
560	0.131085857	0.155581766	0.106589948
561	0.131323714	0.155871126	0.106776302
562	0.131615714	0.156220997	0.107010432
563	0.131871571	0.156524042	0.107219101
564	0.132092143	0.156783666	0.10740062
565	0.132272857	0.157015736	0.107529978
566	0.132526286	0.157320592	0.107731979
567	0.132808429	0.157652392	0.107964466
568	0.133077	0.15796473	0.10818927
569	0.133322	0.158267359	0.108376641
570	0.133587	0.158589802	0.108584198
571	0.133889714	0.158944881	0.108834548
572	0.134100571	0.159214879	0.108986264
573	0.134327857	0.159488156	0.109167558
574	0.134574286	0.159768934	0.109379637
575	0.134825857	0.160059941	0.109591774
576	0.135106286	0.1603925	0.109820071
577	0.135392	0.160736504	0.110047496
578	0.135646286	0.161048249	0.110244322
579	0.135923714	0.161382701	0.110464728
580	0.136189286	0.161702942	0.110675629
581	0.136426	0.161991306	0.110860694
582	0.136690286	0.16229232	0.111088252
583	0.136938	0.162573024	0.111302976
584	0.137172143	0.162838345	0.111505941
585	0.137435	0.163150099	0.111719901
586	0.137649857	0.163397726	0.111901988
587	0.137857571	0.163634147	0.112080996
588	0.138126286	0.163950403	0.112302168
589	0.138436429	0.16433538	0.112537477
590	0.138724571	0.164709373	0.11273977
591	0.138949	0.165024774	0.112873226
592	0.139238	0.165358181	0.113117819
593	0.139517	0.165671969	0.113362031
594	0.139783429	0.165970684	0.113596174
595	0.140056857	0.166318617	0.113795098
596	0.140337	0.166667775	0.114006225
597	0.140627	0.167021477	0.114232523
598	0.140937714	0.167389246	0.114486183
599	0.141212	0.167735509	0.114688491
600	0.141501714	0.168101674	0.114901754
601	0.141841429	0.16851636	0.115166497
602	0.142114714	0.16887856	0.115350868
603	0.142387571	0.169238177	0.115536966
604	0.142665857	0.169597237	0.115734477
605	0.142916143	0.169903159	0.115929126
606	0.143179143	0.170228357	0.116129929
607	0.143451857	0.170563349	0.116340365
608	0.143722857	0.170878601	0.116567113
609	0.143962714	0.17116267	0.116762758
610	0.144190143	0.171437397	0.116942888
611	0.144408714	0.171709401	0.117108027
612	0.144634714	0.171958012	0.117311417
613	0.144857429	0.172195631	0.117519226
614	0.145074857	0.172423631	0.117726083
615	0.145293857	0.172684789	0.117902925
616	0.145521	0.172941884	0.118100116
617	0.145751	0.1731959	0.1183061
618	0.145968	0.173452755	0.118483245
619	0.146186143	0.173702873	0.118669413
620	0.146411143	0.173950395	0.11887189
621	0.146650143	0.174196709	0.119103577
622	0.146891	0.174475456	0.119306544
623	0.147120143	0.174741021	0.119499265
624	0.147332286	0.174981579	0.119682992
625	0.147560714	0.175238026	0.119883403
626	0.147777571	0.175499959	0.120055183
627	0.147998	0.175773225	0.120222775
628	0.148288	0.176090254	0.120485746
629	0.148603714	0.17646572	0.120741709
630	0.148915	0.176840963	0.120989037
631	0.149195571	0.177166496	0.121224646
632	0.149419857	0.177441386	0.121398329
633	0.149644714	0.17771871	0.121570719
634	0.149882286	0.178009312	0.12175526
635	0.150168429	0.17835386	0.121982997
636	0.150436714	0.178684348	0.122189081
637	0.150684	0.178994628	0.122373372
638	0.150885714	0.179248359	0.12252307
639	0.151165857	0.179573102	0.122758612
640	0.151450143	0.179906182	0.122994104
641	0.151660143	0.180184576	0.123135709
642	0.151890857	0.180474676	0.123307039
643	0.152135857	0.180782796	0.123488918
644	0.152397	0.181115733	0.123678267
645	0.152641	0.18139798	0.12388402
646	0.152892714	0.181688298	0.124097131
647	0.153151	0.181989648	0.124312352
648	0.153403429	0.182313004	0.124493853
649	0.153653429	0.182651922	0.124654935
650	0.153895286	0.182979954	0.124810618
651	0.154120714	0.183261301	0.124980128
652	0.154348	0.183539358	0.125156642
653	0.154565571	0.18379615	0.125334993
654	0.154770571	0.18402463	0.125516513
655	0.155008429	0.184343242	0.125673615
656	0.155283571	0.18474251	0.125824633
657	0.155572571	0.185175844	0.125969299
658	0.155786429	0.185435089	0.126137768
659	0.155987857	0.18568437	0.126291345
660	0.156187	0.185931836	0.126442164
661	0.156398	0.186186732	0.126609268
662	0.156647143	0.186481309	0.126812976
663	0.156871714	0.18675522	0.126988209
664	0.157036571	0.186975789	0.127097354
665	0.157294714	0.187300085	0.127289344
666	0.157516857	0.187576294	0.12745742
667	0.157705143	0.187806399	0.127603887
668	0.157958286	0.188101346	0.127815226
669	0.158173714	0.188355645	0.127991783
670	0.158367714	0.188591071	0.128144357
671	0.158555429	0.188833579	0.128277278
672	0.158754286	0.189082571	0.128426
673	0.158963429	0.189339973	0.128586884
674	0.159186143	0.189608209	0.128764077
675	0.159403	0.189876167	0.128929833
676	0.159606429	0.190126566	0.129086291
677	0.1598	0.190363268	0.129236732
678	0.160037714	0.190658769	0.12941666
679	0.160234429	0.190911662	0.129557195
680	0.160412286	0.191141964	0.129682607
681	0.160611857	0.191381746	0.129841968
682	0.160802571	0.191611845	0.129993298
683	0.160991286	0.191826258	0.130156314
684	0.161182286	0.192016285	0.130348287
685	0.161300143	0.192130951	0.130469335
686	0.161465714	0.192351201	0.130580228
687	0.161695857	0.19270449	0.130687224
688	0.161935571	0.193021621	0.130849521
689	0.162145857	0.19329755	0.130994165
690	0.162334	0.193538456	0.131129544
691	0.162518	0.19375195	0.13128405
692	0.162718429	0.193971856	0.131465001
693	0.162937857	0.194220676	0.131655038
694	0.163185857	0.19452584	0.131845874
695	0.163385	0.194780902	0.131989098
696	0.163576143	0.195009875	0.132142411
697	0.163769	0.195220442	0.132317558
698	0.163994571	0.195477144	0.132511999
699	0.164203286	0.195730173	0.132676398
700	0.164406143	0.195984871	0.132827415
701	0.164636286	0.196260273	0.133012299
702	0.164878857	0.19654861	0.133209104
703	0.165115857	0.196828931	0.133402783
704	0.165334714	0.197084534	0.133584895
705	0.165567429	0.197347447	0.133787411
706	0.165790143	0.197602893	0.133977393
707	0.165997714	0.197847317	0.134148112
708	0.166230857	0.198120741	0.134340974
709	0.166464714	0.198395547	0.134533882
710	0.166691857	0.198661516	0.134722198
711	0.166878	0.198871822	0.134884178
712	0.167051143	0.199086006	0.135016279
713	0.167212857	0.199281912	0.135143803
714	0.167357857	0.199426258	0.135289456
715	0.167425143	0.199490252	0.135360034
716	0.167508286	0.199582377	0.135434195
717	0.167638	0.199740455	0.135535545
718	0.167862429	0.200069882	0.135654975
719	0.168143286	0.200440568	0.135846004
720	0.168431429	0.200790248	0.136072609
721	0.168611714	0.200956937	0.136266492
722	0.168763714	0.201116668	0.136410761
723	0.168908143	0.201286164	0.136530122
724	0.169049286	0.201474066	0.136624505
725	0.169262571	0.20173013	0.136795013
726	0.169468571	0.201983033	0.13695411
727	0.169645	0.202214686	0.137075314
728	0.169876	0.202510902	0.137241098
729	0.170155714	0.20284652	0.137464908
730	0.170455429	0.203195941	0.137714916
731	0.170634714	0.203441953	0.137827476
732	0.170866714	0.203709636	0.138023792
733	0.171093857	0.203963853	0.138223861
734	0.171243857	0.204156382	0.138331332
735	0.171461143	0.204425064	0.138497221
736	0.171680714	0.20469109	0.138670339
737	0.171880286	0.204926825	0.138833746
738	0.172128571	0.20522602	0.139031123
739	0.172330429	0.205476989	0.139183868
740	0.172491857	0.205685963	0.139297751
741	0.172711714	0.205954951	0.139468478
742	0.172914714	0.206209756	0.139619673
743	0.173117429	0.206460396	0.139774461
744	0.173348714	0.206725248	0.13997218
745	0.173538714	0.206950712	0.140126717
746	0.173733571	0.207180228	0.140286915
747	0.173955714	0.207434988	0.14047644
748	0.174122143	0.207624421	0.140619864
749	0.17428	0.207821065	0.140738935
750	0.174441714	0.208038821	0.140844608
751	0.174717714	0.208391672	0.141043757
752	0.174933286	0.208656275	0.141210297
753	0.175112143	0.208871329	0.141352957
754	0.175282714	0.209090128	0.1414753
755	0.175492143	0.209339456	0.14164483
756	0.175655429	0.209511482	0.141799375
757	0.175714143	0.20952077	0.141907516
758	0.175423857	0.209057523	0.141790192
759	0.175277714	0.208849699	0.14170573
760	0.175605286	0.209414269	0.141796302
761	0.175879857	0.209808231	0.141951483
762	0.176154143	0.210168844	0.142139442
763	0.17646	0.210566956	0.142353044
764	0.176824429	0.211077773	0.142571084
765	0.177147286	0.211468779	0.142825793
766	0.177411	0.211777922	0.143044078
767	0.177628857	0.212043171	0.143214543
768	0.177873143	0.212333114	0.143413171
769	0.178095714	0.212596557	0.143594871
770	0.178295143	0.212833486	0.1437568
771	0.178499429	0.213093187	0.14390567
772	0.178721	0.213361116	0.144080884
773	0.17895	0.213634966	0.144265034
774	0.179157857	0.213906375	0.14440934
775	0.179315857	0.214109481	0.144522233
776	0.179461143	0.214296542	0.144625744
777	0.179615	0.214497072	0.144732928
778	0.179833714	0.214775347	0.144892082
779	0.180027571	0.215021526	0.145033617
780	0.180179	0.21521356	0.14514444
781	0.180311	0.215385654	0.145236346
782	0.180516143	0.215633767	0.145398518
783	0.180764571	0.215928693	0.145600449
784	0.180962571	0.21618229	0.145742853
785	0.181115857	0.216376138	0.145855577
786	0.181255143	0.216557991	0.145952294
787	0.181399714	0.216762335	0.146037094
788	0.181574857	0.216992552	0.146157162
789	0.181748571	0.217216623	0.14628052
790	0.181913286	0.217425021	0.146401551
791	0.182164714	0.217724368	0.14660506
792	0.182365143	0.217981372	0.146748914
793	0.182525857	0.21820558	0.146846134
794	0.182691143	0.218432177	0.146950109
795	0.182841	0.218639211	0.147042789
796	0.183014286	0.218860023	0.147168548
797	0.183262714	0.219135404	0.147390024
798	0.183470143	0.219396724	0.147543562
799	0.183640286	0.219618521	0.14766205
800	0.183764286	0.219784257	0.147744314
801	0.183978143	0.220056489	0.147899797
802	0.184172429	0.220311347	0.14803351
803	0.184349429	0.220551537	0.148147321
804	0.184518143	0.220791406	0.14824488
805	0.184744429	0.221069666	0.148419191
806	0.184977714	0.221343416	0.148612013
807	0.185157143	0.221552815	0.148761471
808	0.185234714	0.221683003	0.148786426
809	0.185364	0.221876937	0.148851063
810	0.185604429	0.2221919	0.149016957
811	0.185647714	0.222264002	0.149031427
812	0.185691143	0.222348988	0.149033298
813	0.185743857	0.222451003	0.149036711
814	0.185814	0.222516067	0.149111933
815	0.185983	0.22271808	0.14924792
816	0.186206429	0.22300058	0.149412278
817	0.186440429	0.223314357	0.149566501
818	0.186674714	0.223608965	0.149740463
819	0.186908571	0.223912011	0.149905132
820	0.187148857	0.224243603	0.150054111
821	0.187193	0.224249137	0.150136863
822	0.187355857	0.224432219	0.150279495
823	0.187624143	0.224784366	0.150463919
824	0.187849143	0.225104284	0.150594001
825	0.188035714	0.225349373	0.150722055
826	0.188198857	0.225560362	0.150837352
827	0.188321286	0.225751267	0.150891305
828	0.188518857	0.225982396	0.151055318
829	0.188730571	0.226235188	0.151225955
830	0.188934714	0.226509366	0.151360062
831	0.189080714	0.226724688	0.15143674
832	0.189263143	0.226985873	0.151540412
833	0.189487143	0.227293655	0.151680631
834	0.189744857	0.227602765	0.15188695
835	0.189977143	0.227892985	0.1520613
836	0.190161286	0.228136445	0.152186127
837	0.190213	0.228239618	0.152186382
838	0.190444286	0.228518003	0.152370568
839	0.190667	0.228788499	0.152545501
840	0.190777714	0.228949786	0.152605643
841	0.191036	0.22927867	0.15279333
842	0.191249143	0.229563146	0.15293514
843	0.191402429	0.229784801	0.153020056
844	0.191604571	0.230023341	0.153185802
845	0.191778	0.230244972	0.153311028
846	0.191936286	0.230462513	0.153410059
847	0.192104286	0.230699703	0.153508868
848	0.192288286	0.230933964	0.153642608
849	0.192461571	0.231156825	0.153766318
850	0.192594	0.231348636	0.153839364
851	0.192800714	0.231609289	0.153992139
852	0.192919714	0.231768113	0.154071316
853	0.192934429	0.231809763	0.154059094
854	0.193165857	0.232102512	0.154229203
855	0.193408143	0.232420478	0.154395808
856	0.193637429	0.232726755	0.154548102
857	0.193815286	0.232960174	0.154670397
