Wavelength	Mean	Std+	Std-
350	0.070448733	0.091943599	0.048953868
351	0.070545533	0.092203077	0.048887989
352	0.070395867	0.092353351	0.048438382
353	0.0711222	0.09337041	0.04887399
354	0.071566467	0.094023978	0.049108955
355	0.071708267	0.094311314	0.049105219
356	0.072391133	0.095310383	0.049471884
357	0.073092533	0.096294292	0.049890774
358	0.073740467	0.097224337	0.050256597
359	0.0741498	0.097990323	0.050309277
360	0.0745974	0.098712486	0.050482314
361	0.075111267	0.099510453	0.050712081
362	0.075713267	0.10045741	0.050969124
363	0.0763092	0.10147341	0.05114499
364	0.077088933	0.102637419	0.051540448
365	0.0780454	0.103929221	0.052161579
366	0.0782874	0.104447671	0.052127129
367	0.078884	0.105261094	0.052506906
368	0.0796328	0.106216964	0.053048636
369	0.080027333	0.106919973	0.053134693
370	0.0807534	0.107966795	0.053540005
371	0.081653933	0.109194989	0.054112878
372	0.0826892	0.110562846	0.054815554
373	0.082982933	0.111213055	0.054752811
374	0.083632933	0.112271239	0.054994627
375	0.084805467	0.11390465	0.055706284
376	0.085468333	0.114874177	0.05606249
377	0.086052533	0.115792726	0.05631234
378	0.086698733	0.116800511	0.056596956
379	0.0879746	0.118478769	0.057470431
380	0.088575267	0.119419278	0.057731255
381	0.089241733	0.120390739	0.058092727
382	0.0906786	0.122117727	0.059239473
383	0.091406333	0.123212342	0.059600325
384	0.092167733	0.124408642	0.059926825
385	0.093087	0.125829857	0.060344143
386	0.093829267	0.127064401	0.060594132
387	0.094609333	0.128282053	0.060936614
388	0.0954888	0.129537167	0.061440433
389	0.096842333	0.131156764	0.062527903
390	0.097885667	0.132564969	0.063206364
391	0.098729	0.133795831	0.063662169
392	0.099449533	0.134889342	0.064009724
393	0.100406	0.13624777	0.06456423
394	0.1014824	0.137744732	0.065220068
395	0.102605133	0.13928531	0.065924957
396	0.103525733	0.140760298	0.066291169
397	0.1045082	0.142168541	0.066847859
398	0.105517	0.143532694	0.067501306
399	0.106448133	0.144913347	0.067982919
400	0.107430933	0.146243891	0.068617975
401	0.108373467	0.147485141	0.069261793
402	0.1092526	0.148667639	0.069837561
403	0.110258933	0.149973322	0.070544545
404	0.1113292	0.151334145	0.071324255
405	0.112454267	0.152737192	0.072171341
406	0.113382867	0.154059849	0.072705884
407	0.114517133	0.155566442	0.073467825
408	0.1157902	0.157196576	0.074383824
409	0.116876267	0.158681824	0.075070709
410	0.118082067	0.160282847	0.075881287
411	0.119282733	0.161856932	0.076708534
412	0.120364	0.163268011	0.077459989
413	0.121605533	0.164839686	0.078371381
414	0.122827133	0.166390823	0.079263443
415	0.123991533	0.167890939	0.080092128
416	0.125289933	0.169519283	0.081060583
417	0.126525267	0.171088559	0.081961975
418	0.127710933	0.172608784	0.082813083
419	0.129009467	0.174215827	0.083803106
420	0.1302884	0.175797951	0.084778849
421	0.131549667	0.177364581	0.085734752
422	0.132814333	0.178959842	0.086668825
423	0.134068	0.180522293	0.087613707
424	0.135286733	0.182031358	0.088542109
425	0.136461133	0.183476181	0.089446085
426	0.1376946	0.184948211	0.090440989
427	0.138894733	0.186418552	0.091370915
428	0.140101667	0.187940311	0.092263022
429	0.141476333	0.189631243	0.093321424
430	0.142835133	0.191262516	0.09440775
431	0.144133333	0.192830532	0.095436135
432	0.145280067	0.194333684	0.096226449
433	0.146555133	0.195892083	0.097218184
434	0.147804333	0.19741549	0.098193177
435	0.148916933	0.198808646	0.099025221
436	0.1500686	0.200149873	0.099987327
437	0.151199067	0.201474425	0.100923708
438	0.152330267	0.202820765	0.101839768
439	0.153472067	0.204206276	0.102737858
440	0.154595	0.205560079	0.103629921
441	0.1556834	0.206868266	0.104498534
442	0.156819933	0.20825691	0.105382957
443	0.1579526	0.209613943	0.106291257
444	0.159109133	0.2109809	0.107237367
445	0.160262067	0.212315723	0.10820841
446	0.1613108	0.213585493	0.109036107
447	0.162337533	0.214827851	0.109847216
448	0.163392667	0.216100012	0.110685321
449	0.164380067	0.217284497	0.111475636
450	0.165440867	0.218540292	0.112341441
451	0.166507667	0.219789657	0.113225676
452	0.1675274	0.220986798	0.114068002
453	0.1685376	0.222191245	0.114883955
454	0.169567	0.223418728	0.115715272
455	0.1705798	0.224602688	0.116556912
456	0.171494667	0.225723437	0.117265896
457	0.1724182	0.226852334	0.117984066
458	0.173404	0.228047792	0.118760208
459	0.174393867	0.229194096	0.119593638
460	0.175326733	0.230285224	0.120368243
461	0.176197	0.231308811	0.121085189
462	0.177110133	0.232394258	0.121826009
463	0.1780144	0.233455451	0.122573349
464	0.178879867	0.234476242	0.123283491
465	0.1796602	0.235422328	0.123898072
466	0.1805674	0.236457063	0.124677737
467	0.1814444	0.237478373	0.125410427
468	0.182224	0.238424376	0.126023624
469	0.1830912	0.239452241	0.126730159
470	0.1838898	0.240411934	0.127367666
471	0.184609933	0.241281341	0.127938526
472	0.185400467	0.242217061	0.128583873
473	0.186128733	0.243086461	0.129171006
474	0.186851067	0.243950939	0.129751194
475	0.187538733	0.244761002	0.130316465
476	0.188279667	0.245618875	0.130940458
477	0.189005667	0.246474713	0.13153662
478	0.189656067	0.24726035	0.132051784
479	0.1903868	0.248093287	0.132680313
480	0.191099	0.248922661	0.133275339
481	0.191762	0.249700558	0.133823442
482	0.192470467	0.250495606	0.134445328
483	0.193124467	0.251223606	0.135025327
484	0.193806	0.251988756	0.135623244
485	0.194518933	0.252796742	0.136241125
486	0.1951466	0.25356344	0.13672976
487	0.195761867	0.254324192	0.137199541
488	0.1964178	0.255131983	0.137703617
489	0.1970922	0.255965038	0.138219362
490	0.197752533	0.256771267	0.1387338
491	0.198364133	0.257500611	0.139227655
492	0.199045467	0.258257356	0.139833577
493	0.1996758	0.258987587	0.140364013
494	0.2003376	0.259770588	0.140904612
495	0.2010834	0.260642304	0.141524496
496	0.201766867	0.261444529	0.142089205
497	0.2024618	0.26225618	0.14266742
498	0.203151333	0.263046598	0.143256068
499	0.203877267	0.263872359	0.143882175
500	0.204591333	0.264702905	0.144479762
501	0.205289533	0.265535408	0.145043659
502	0.205963533	0.26636591	0.145561156
503	0.206645467	0.267199464	0.14609147
504	0.207337067	0.268034712	0.146639422
505	0.208061733	0.26888603	0.147237436
506	0.208781933	0.269729528	0.147834338
507	0.209523667	0.270585428	0.148461905
508	0.210310667	0.271473597	0.149147737
509	0.2110266	0.272312365	0.149740835
510	0.211771467	0.273187226	0.150355707
511	0.212549733	0.274099829	0.150999637
512	0.2132968	0.274962626	0.151630974
513	0.214088467	0.275862521	0.152314412
514	0.2149082	0.276789006	0.153027394
515	0.215721867	0.277716297	0.153727437
516	0.216501267	0.278641163	0.154361371
517	0.217309333	0.279608699	0.155009968
518	0.2181812	0.280647053	0.155715347
519	0.218994867	0.281640747	0.156348986
520	0.219806133	0.282620313	0.156991953
521	0.220591133	0.283550592	0.157631674
522	0.221395	0.284465339	0.158324661
523	0.222242067	0.285419179	0.159064955
524	0.223108733	0.286394849	0.159822618
525	0.223931867	0.287343264	0.160520469
526	0.224836	0.288376034	0.161295966
527	0.225722067	0.289403109	0.162041025
528	0.226533533	0.290378228	0.162688839
529	0.227324933	0.291316284	0.163333582
530	0.228096667	0.292206132	0.163987201
531	0.228900733	0.293111474	0.164689993
532	0.229829867	0.294137821	0.165521912
533	0.230701667	0.295133903	0.16626943
534	0.2315378	0.296111556	0.166964044
535	0.2323746	0.297086416	0.167662784
536	0.2331932	0.298023943	0.168362457
537	0.234022733	0.298958075	0.169087392
538	0.234922	0.299952589	0.169891411
539	0.235736467	0.30088682	0.170586113
540	0.236552533	0.301822389	0.171282678
541	0.237374733	0.302758774	0.171990693
542	0.238136733	0.303665504	0.172607963
543	0.238924667	0.304581552	0.173267781
544	0.2397552	0.305532154	0.173978246
545	0.240584667	0.306460627	0.174708706
546	0.241395267	0.307367015	0.175423519
547	0.242205267	0.308272646	0.176137888
548	0.2430602	0.309233233	0.176887167
549	0.243792	0.310068402	0.177515598
550	0.244526533	0.310900472	0.178152594
551	0.245285	0.311747182	0.178822818
552	0.246011867	0.312560942	0.179462792
553	0.246716333	0.313342295	0.180090372
554	0.247400667	0.3140949	0.180706433
555	0.248056733	0.314809489	0.181303978
556	0.248734333	0.3155373	0.181931367
557	0.249352467	0.316191169	0.182513765
558	0.249971333	0.316867611	0.183075056
559	0.2505448	0.317514484	0.183575116
560	0.251070267	0.31809852	0.184042014
561	0.251599067	0.318676225	0.184521908
562	0.252173	0.319266443	0.185079557
563	0.2527014	0.319803924	0.185598876
564	0.253232667	0.320350509	0.186114825
565	0.253681867	0.320800194	0.186563539
566	0.254193	0.321324993	0.187061007
567	0.2546986	0.321843351	0.187553849
568	0.255110333	0.322248613	0.187972054
569	0.255544133	0.322693965	0.188394302
570	0.255951667	0.323114017	0.188789317
571	0.256290467	0.323456317	0.189124616
572	0.2566106	0.32378196	0.18943924
573	0.2569256	0.324084253	0.189766947
574	0.257214133	0.324338283	0.190089984
575	0.257552	0.324650204	0.190453796
576	0.257850333	0.324922941	0.190777726
577	0.258109467	0.325152992	0.191065942
578	0.258413733	0.325446	0.191381467
579	0.2587202	0.325733567	0.191706833
580	0.2590256	0.326028619	0.192022581
581	0.259328733	0.326337837	0.192319629
582	0.259677667	0.326646184	0.19270915
583	0.259999867	0.326921154	0.193078579
584	0.260294667	0.327162514	0.193426819
585	0.260578667	0.327378467	0.193778866
586	0.260818	0.327534556	0.194101444
587	0.261027733	0.327654468	0.194400999
588	0.26121	0.327757386	0.194662614
589	0.261470267	0.327986922	0.194953612
590	0.261754733	0.328271491	0.195237976
591	0.262039	0.328587202	0.195490798
592	0.262464533	0.32899947	0.195929597
593	0.262866267	0.329381336	0.196351197
594	0.263241	0.329735242	0.196746758
595	0.263671933	0.330184389	0.197159478
596	0.264084267	0.330615002	0.197553531
597	0.264514733	0.33107044	0.197959027
598	0.264924067	0.331496258	0.198351876
599	0.265289267	0.331879759	0.198698774
600	0.265666	0.332293568	0.199038432
601	0.266017	0.332699666	0.199334334
602	0.266378533	0.333106059	0.199651008
603	0.266741733	0.333509791	0.199973675
604	0.267102267	0.333906477	0.200298057
605	0.267386667	0.334212612	0.200560721
606	0.267672	0.3345229	0.2008211
607	0.267949467	0.334819222	0.201079711
608	0.2681784	0.335032051	0.201324749
609	0.268386533	0.335221394	0.201551673
610	0.268610733	0.335432973	0.201788493
611	0.2688822	0.335706837	0.202057563
612	0.2691086	0.33589304	0.20232416
613	0.269321933	0.336062575	0.202581292
614	0.269553467	0.336260276	0.202846658
615	0.269734067	0.336422579	0.203045554
616	0.269944667	0.336615181	0.203274153
617	0.270155	0.336800929	0.203509071
618	0.2704258	0.337054035	0.203797565
619	0.270741467	0.337353958	0.204128975
620	0.2710664	0.337658172	0.204474628
621	0.271402	0.337966014	0.204837986
622	0.271697133	0.338249432	0.205144835
623	0.272048133	0.33858734	0.205508926
624	0.272472133	0.338991931	0.205952335
625	0.272871	0.339391517	0.206350483
626	0.273297667	0.339824768	0.206770566
627	0.2737426	0.340284313	0.207200887
628	0.2741856	0.340764843	0.207606357
629	0.274631533	0.341255672	0.208007395
630	0.275008533	0.341668626	0.208348441
631	0.275410267	0.342125128	0.208695405
632	0.2757536	0.342521566	0.208985634
633	0.276096867	0.34290742	0.209286314
634	0.276452733	0.343293419	0.209612048
635	0.276720067	0.343603185	0.209836948
636	0.276905867	0.343826218	0.209985515
637	0.277036	0.343987156	0.210084844
638	0.277200533	0.34416641	0.210234657
639	0.277280867	0.344270492	0.210291242
640	0.277325	0.344352593	0.210297407
641	0.2772348	0.344295781	0.210173819
642	0.277193467	0.34427563	0.210111303
643	0.277093733	0.344184404	0.210003062
644	0.276906467	0.343992454	0.209820479
645	0.276686267	0.343753838	0.209618696
646	0.276466	0.343525793	0.209406207
647	0.2762546	0.34331704	0.20919216
648	0.276114867	0.343190187	0.209039547
649	0.276028267	0.343134879	0.208921654
650	0.275976867	0.343118505	0.208835229
651	0.275955067	0.343118408	0.208791726
652	0.275934933	0.343089127	0.20878074
653	0.2759332	0.343066566	0.208799834
654	0.2759064	0.342997721	0.208815079
655	0.275742267	0.342841052	0.208643482
656	0.275562867	0.342712478	0.208413256
657	0.275329267	0.342540859	0.208117675
658	0.275090733	0.342273022	0.207908444
659	0.2747646	0.341902164	0.207627036
660	0.274384467	0.341466206	0.207302727
661	0.2739566	0.340968617	0.206944583
662	0.273442067	0.340386492	0.206497642
663	0.272944333	0.339834326	0.20605434
664	0.2724534	0.339295802	0.205610998
665	0.272017467	0.338800397	0.205234536
666	0.271575267	0.338307394	0.204843139
667	0.271108933	0.337793658	0.204424208
668	0.270825333	0.337479809	0.204170858
669	0.270568933	0.337190096	0.203947771
670	0.270331867	0.336920886	0.203742848
671	0.270113133	0.336681828	0.203544439
672	0.2700136	0.336562674	0.203464526
673	0.2699522	0.336479943	0.203424457
674	0.269901667	0.336404813	0.20339852
675	0.269898533	0.33639198	0.203405086
676	0.269956733	0.33644167	0.203471797
677	0.2701342	0.3366237	0.2036447
678	0.270372867	0.336855388	0.203890345
679	0.270768867	0.337260029	0.204277705
680	0.271300733	0.337815072	0.204786394
681	0.271978667	0.338528463	0.20542887
682	0.2729246	0.339530065	0.206319135
683	0.2740604	0.340720543	0.207400257
684	0.275482733	0.342195744	0.208769723
685	0.277307067	0.344058339	0.210555794
686	0.279487667	0.346385632	0.212589702
687	0.282008933	0.349193059	0.214824808
688	0.284956133	0.35248143	0.217430836
689	0.288169267	0.356040663	0.220297871
690	0.2915716	0.359797674	0.223345526
691	0.295372533	0.363982401	0.226762666
692	0.299506533	0.368561124	0.230451943
693	0.3038994	0.373469828	0.234328972
694	0.308544533	0.378718765	0.238370301
695	0.313463	0.384299721	0.242626279
696	0.318373267	0.389863797	0.246882737
697	0.323334667	0.395471609	0.251197724
698	0.3283208	0.401126196	0.255515404
699	0.333406467	0.406921216	0.259891718
700	0.3385942	0.41285781	0.26433059
701	0.343743467	0.418763956	0.268722977
702	0.3488302	0.424603532	0.273056868
703	0.353797933	0.43030167	0.277294197
704	0.3586304	0.43582431	0.28143649
705	0.363394867	0.441279256	0.285510478
706	0.368080667	0.446645934	0.289515399
707	0.3726856	0.451919555	0.293451645
708	0.3772512	0.45715972	0.29734268
709	0.381717333	0.462279586	0.301155081
710	0.386086067	0.467284867	0.304887266
711	0.390318733	0.472143464	0.308494003
712	0.394412267	0.476832234	0.3119923
713	0.3983858	0.48136683	0.31540477
714	0.402231333	0.485718109	0.318744557
715	0.4056088	0.489478273	0.321739327
716	0.4090232	0.493314951	0.324731449
717	0.412555933	0.497364345	0.327747522
718	0.416362867	0.501921523	0.33080421
719	0.420437067	0.506798243	0.33407589
720	0.424311667	0.511402326	0.337221007
721	0.427857067	0.51540404	0.340310093
722	0.430949467	0.518901006	0.342997927
723	0.434088133	0.522509506	0.345666761
724	0.4371862	0.526208159	0.348164241
725	0.44015	0.529698721	0.350601279
726	0.443082533	0.533142096	0.353022971
727	0.4459744	0.536532475	0.355416325
728	0.448624533	0.539687643	0.357561424
729	0.451258867	0.542831335	0.359686398
730	0.4538126	0.54588492	0.36174028
731	0.456513933	0.549126107	0.36390176
732	0.458979733	0.552041291	0.365918176
733	0.461234933	0.554681185	0.367788682
734	0.463288133	0.557063771	0.369512495
735	0.4651902	0.559327784	0.371052616
736	0.467088533	0.561588286	0.372588781
737	0.468938267	0.563769709	0.374106824
738	0.470600533	0.565754382	0.375446685
739	0.472261933	0.567738389	0.376785478
740	0.473825533	0.569605307	0.37804576
741	0.475384333	0.571472748	0.379295918
742	0.4768522	0.573216586	0.380487814
743	0.478253267	0.57487116	0.381635373
744	0.479605133	0.576461639	0.382748628
745	0.480851267	0.577926126	0.383776407
746	0.482091533	0.579378325	0.384804742
747	0.483270333	0.580746935	0.385793731
748	0.4843838	0.582064752	0.386702848
749	0.485453267	0.583334241	0.387572292
750	0.4864832	0.58455764	0.38840876
751	0.487546	0.585804773	0.389287227
752	0.488500667	0.586915539	0.390085794
753	0.489397667	0.587953961	0.390841372
754	0.4903152	0.58901713	0.39161327
755	0.491235667	0.590074118	0.392397215
756	0.491990067	0.590874306	0.393105828
757	0.492458	0.591211309	0.393704691
758	0.491059267	0.589010831	0.393107703
759	0.489012133	0.586360033	0.391664234
760	0.48717	0.584924591	0.389415409
761	0.489383733	0.587713132	0.391054334
762	0.491113067	0.589847463	0.39237867
763	0.4929528	0.592094509	0.393811091
764	0.495399933	0.595099652	0.395700214
765	0.497514733	0.59753855	0.397490917
766	0.499229733	0.599450584	0.399008882
767	0.5006784	0.601008609	0.400348191
768	0.5017972	0.602255471	0.401338929
769	0.5027966	0.60337133	0.40222187
770	0.503715667	0.604393874	0.40303746
771	0.504559733	0.605341032	0.403778435
772	0.505388733	0.606281165	0.404496302
773	0.506134	0.607127694	0.405140306
774	0.506914533	0.608015246	0.405813821
775	0.5076996	0.608907244	0.406491956
776	0.508477467	0.609785723	0.40716921
777	0.509242	0.610637478	0.407846522
778	0.509944733	0.611443545	0.408445922
779	0.5106908	0.612300595	0.409081005
780	0.511497067	0.613224496	0.409769637
781	0.512211667	0.614031769	0.410391565
782	0.512915733	0.614826029	0.411005438
783	0.5136656	0.615677485	0.411653715
784	0.514344	0.616457802	0.412230198
785	0.515002467	0.617209094	0.41279584
786	0.5156142	0.617905452	0.413322948
787	0.516121467	0.618484857	0.413758076
788	0.5166548	0.619077546	0.414232054
789	0.517256933	0.619760101	0.414753766
790	0.5179384	0.620551655	0.415325145
791	0.518697667	0.62141413	0.415981204
792	0.5194454	0.622270424	0.416620376
793	0.520151267	0.623084879	0.417217654
794	0.520677133	0.623700317	0.41765395
795	0.521263067	0.624374139	0.418151994
796	0.521886133	0.625093675	0.418678592
797	0.5225354	0.625862271	0.419208529
798	0.523039267	0.626417239	0.419661294
799	0.523535333	0.626969483	0.420101184
800	0.524048733	0.62756279	0.420534677
801	0.524600333	0.628206503	0.420994163
802	0.525226533	0.628930326	0.421522741
803	0.525913467	0.629720331	0.422106602
804	0.5266552	0.630583885	0.422726515
805	0.527257133	0.631277583	0.423236684
806	0.527730867	0.631813863	0.42364787
807	0.528160333	0.632289759	0.424030908
808	0.528501867	0.632669926	0.424333807
809	0.528854	0.633066849	0.424641151
810	0.529248067	0.6335169	0.424979234
811	0.529412133	0.633678098	0.425146169
812	0.529525133	0.633778296	0.425271971
813	0.529612333	0.633844945	0.425379722
814	0.5297626	0.633967215	0.425557985
815	0.529993333	0.634205261	0.425781406
816	0.530306867	0.634552331	0.426061402
817	0.5308348	0.635156939	0.426512661
818	0.531430533	0.635868825	0.426992241
819	0.532058533	0.636642242	0.427474824
820	0.532632733	0.637377347	0.427888119
821	0.532564467	0.63718363	0.427945304
822	0.532761933	0.637349543	0.428174323
823	0.5332444	0.637920825	0.428567975
824	0.533807867	0.638664691	0.428951043
825	0.5340668	0.638980254	0.429153346
826	0.534173133	0.639078122	0.429268145
827	0.5342238	0.639095068	0.429352532
828	0.534296267	0.639162576	0.429429958
829	0.534370133	0.639243296	0.429496971
830	0.5343832	0.639260327	0.429506073
831	0.534479933	0.639342307	0.42961756
832	0.534565667	0.639417063	0.42971427
833	0.5347502	0.63962166	0.42987874
834	0.534997333	0.639935793	0.430058874
835	0.5353276	0.640331524	0.430323676
836	0.535620933	0.640673294	0.430568572
837	0.5358618	0.640953348	0.430770252
838	0.536216733	0.641350999	0.431082467
839	0.5365932	0.641769817	0.431416583
840	0.536951333	0.642168163	0.431734503
841	0.537252133	0.642510085	0.431994181
842	0.537543333	0.642842669	0.432243998
843	0.5378296	0.643172275	0.432486925
844	0.538125667	0.64353079	0.432720543
845	0.538387067	0.643826263	0.432947871
846	0.538629267	0.644094689	0.433163844
847	0.538880133	0.644416269	0.433343998
848	0.5391292	0.644651705	0.433606695
849	0.539358067	0.644862477	0.433853657
850	0.539535933	0.645070548	0.434001319
851	0.539759267	0.645390715	0.434127818
852	0.539936	0.64558292	0.43428908
853	0.540115733	0.645684961	0.434546506
854	0.5404084	0.645948601	0.434868199
855	0.5406622	0.646292369	0.435032031
856	0.5408574	0.646622652	0.435092148
857	0.540975267	0.646761372	0.435189161
858	0.5411242	0.646934833	0.435313567
859	0.541299933	0.647139954	0.435459912
860	0.5413718	0.647222634	0.435520966
