Wavelength	Mean	Std+	Std-
350	0.0578659	0.06516927	0.05056253
351	0.05825	0.065580374	0.050919626
352	0.0586104	0.06598918	0.05123162
353	0.0591083	0.066537682	0.051678918
354	0.0594346	0.06693517	0.05193403
355	0.0595817	0.067168058	0.051995342
356	0.0597289	0.067314075	0.052143725
357	0.0601289	0.067728637	0.052529163
358	0.0605817	0.068214564	0.052948836
359	0.0606792	0.068388551	0.052969849
360	0.061116	0.068880657	0.053351343
361	0.0616106	0.069436016	0.053785184
362	0.06203	0.069941276	0.054118724
363	0.0623529	0.070334646	0.054371154
364	0.0627489	0.070802503	0.054695297
365	0.0632265	0.071353859	0.055099141
366	0.0635592	0.071744906	0.055373494
367	0.0640075	0.072245664	0.055769336
368	0.0644704	0.07275658	0.05618422
369	0.0646618	0.072990364	0.056333236
370	0.0652089	0.073591034	0.056826766
371	0.0658312	0.074272461	0.057389939
372	0.0663516	0.074855959	0.057847241
373	0.0667168	0.075304302	0.058129298
374	0.0672834	0.075978108	0.058588692
375	0.0681106	0.076938029	0.059283171
376	0.0685327	0.077444203	0.059621197
377	0.0690232	0.077998705	0.060047695
378	0.0695839	0.078620795	0.060547005
379	0.0702328	0.079390235	0.061075365
380	0.0708123	0.080087201	0.061537399
381	0.0714107	0.080776104	0.062045296
382	0.0721121	0.081506681	0.062717519
383	0.0728356	0.082330698	0.063340502
384	0.0734951	0.083099525	0.063890675
385	0.074076	0.083787235	0.064364765
386	0.0750117	0.084832079	0.065191321
387	0.0756808	0.085602896	0.065758704
388	0.0761784	0.086196807	0.066159993
389	0.0768309	0.086950981	0.066710819
390	0.0774043	0.087603881	0.067204719
391	0.0779437	0.088213654	0.067673746
392	0.0784943	0.088836032	0.068152568
393	0.0792121	0.089651053	0.068773147
394	0.0799189	0.090463488	0.069374312
395	0.0805585	0.091211184	0.069905816
396	0.0812709	0.092027784	0.070514016
397	0.0819292	0.092783114	0.071075286
398	0.0825171	0.093461997	0.071572203
399	0.0829544	0.093986716	0.071922084
400	0.0834323	0.094541382	0.072323218
401	0.0839276	0.095104872	0.072750328
402	0.0844723	0.095713103	0.073231497
403	0.0848924	0.096171664	0.073613136
404	0.0853509	0.096672656	0.074029144
405	0.0859042	0.097280789	0.074527611
406	0.0863585	0.097795684	0.074921316
407	0.0868879	0.098395453	0.075380347
408	0.0874697	0.099056158	0.075883242
409	0.0879852	0.099662194	0.076308206
410	0.0885115	0.10026114	0.07676186
411	0.0890366	0.100851973	0.077221227
412	0.0895626	0.101448215	0.077676985
413	0.0901359	0.102096877	0.078174923
414	0.0906615	0.102698345	0.078624655
415	0.0911099	0.103222637	0.078997163
416	0.0917473	0.103932834	0.079561766
417	0.0923701	0.104634158	0.080106042
418	0.092971	0.105318927	0.080623073
419	0.0935636	0.105991065	0.081136135
420	0.0941749	0.106695997	0.081653803
421	0.0948149	0.107433538	0.082196262
422	0.0955239	0.108230972	0.082816828
423	0.096236	0.109044952	0.083427048
424	0.0969194	0.109830668	0.084008132
425	0.0975612	0.110570143	0.084552257
426	0.0982918	0.111401442	0.085182158
427	0.0990788	0.112298214	0.085859386
428	0.0999209	0.113261402	0.086580398
429	0.1007863	0.11427655	0.08729605
430	0.101688	0.115317671	0.088058329
431	0.1026086	0.116378119	0.088839081
432	0.1035525	0.117486436	0.089618564
433	0.1045372	0.118636732	0.090437668
434	0.1054924	0.119747551	0.091237249
435	0.1063886	0.120783637	0.091993563
436	0.1073287	0.121868827	0.092788573
437	0.1082653	0.122944059	0.093586541
438	0.1092011	0.124013988	0.094388212
439	0.1101516	0.125113557	0.095189643
440	0.1110893	0.12620281	0.09597579
441	0.1120043	0.127269956	0.096738644
442	0.1128769	0.128292573	0.097461227
443	0.113776	0.129333879	0.098218121
444	0.114646	0.130340257	0.098951743
445	0.1154466	0.131269943	0.099623257
446	0.1162566	0.132210659	0.100302541
447	0.1169981	0.133077082	0.100919118
448	0.1176689	0.133867375	0.101470425
449	0.1183744	0.134684349	0.102064451
450	0.119041	0.135457484	0.102624516
451	0.1196742	0.136190331	0.103158069
452	0.1202615	0.136860615	0.103662385
453	0.120821	0.13750596	0.10413604
454	0.1213541	0.138121966	0.104586234
455	0.121851	0.138694377	0.105007623
456	0.1223092	0.13923885	0.10537955
457	0.1227713	0.139781885	0.105760715
458	0.1232387	0.140320984	0.106156416
459	0.1236258	0.140765355	0.106486245
460	0.1239988	0.141191874	0.106805726
461	0.1243508	0.141596149	0.107105451
462	0.1246366	0.141936514	0.107336686
463	0.1249633	0.142309087	0.107617513
464	0.1252894	0.142680434	0.107898366
465	0.125577	0.143018845	0.108135155
466	0.1258909	0.143364115	0.108417685
467	0.1261893	0.143700172	0.108678428
468	0.1264599	0.144020755	0.108899045
469	0.126803	0.144409562	0.109196438
470	0.1270809	0.144736039	0.109425761
471	0.1273309	0.145036552	0.109625248
472	0.1277128	0.145463952	0.109961648
473	0.1280652	0.145867537	0.110262863
474	0.1284182	0.146271749	0.110564651
475	0.1288055	0.146704051	0.110906949
476	0.12918	0.147138038	0.111221962
477	0.129549	0.147567766	0.111530234
478	0.1299154	0.147992998	0.111837802
479	0.1303481	0.148497892	0.112198308
480	0.1307851	0.149005828	0.112564372
481	0.1312336	0.149522674	0.112944526
482	0.1317549	0.15010362	0.11340618
483	0.1322701	0.15068674	0.11385346
484	0.1327946	0.151286121	0.114303079
485	0.1333412	0.151914932	0.114767468
486	0.1339399	0.152609931	0.115269869
487	0.1345676	0.153344659	0.115790541
488	0.1352197	0.154115218	0.116324182
489	0.135907	0.15491825	0.11689575
490	0.1365947	0.155720767	0.117468633
491	0.1372782	0.156516476	0.118039924
492	0.1380021	0.157349659	0.118654541
493	0.1387596	0.158222727	0.119296473
494	0.1395446	0.159131225	0.119957975
495	0.1403699	0.160097011	0.120642789
496	0.1412414	0.161103091	0.121379709
497	0.142076	0.162071724	0.122080276
498	0.1428418	0.162973193	0.122710407
499	0.1437076	0.163985658	0.123429542
500	0.1446127	0.16504341	0.12418199
501	0.1455481	0.166137519	0.124958681
502	0.1464775	0.167238011	0.125716989
503	0.1474146	0.168335866	0.126493334
504	0.1483556	0.169434524	0.127276676
505	0.1493165	0.170566186	0.128066814
506	0.1502679	0.171687556	0.128848244
507	0.1512067	0.172792145	0.129621255
508	0.1521369	0.173883199	0.130390601
509	0.1531312	0.175052788	0.131209612
510	0.1541201	0.17620861	0.13203159
511	0.1551051	0.177352738	0.132857462
512	0.1561274	0.178544043	0.133710757
513	0.1571089	0.179692734	0.134525066
514	0.1580749	0.180824913	0.135324887
515	0.1590473	0.18196082	0.13613378
516	0.160051	0.183143095	0.136958905
517	0.1610791	0.18435313	0.13780507
518	0.1621245	0.185576815	0.138672185
519	0.1631647	0.186815431	0.139513969
520	0.1641853	0.18803019	0.14034041
521	0.1651786	0.189208019	0.141149181
522	0.1662038	0.19039364	0.14201396
523	0.1672004	0.191552847	0.142847953
524	0.1681909	0.192708298	0.143673502
525	0.1692087	0.193892612	0.144524788
526	0.1702392	0.195094759	0.145383641
527	0.1712684	0.196297595	0.146239205
528	0.1722975	0.197502555	0.147092445
529	0.1733166	0.198699474	0.147933726
530	0.1743272	0.199879	0.1487754
531	0.1753265	0.201037167	0.149615833
532	0.1763207	0.20219217	0.15044923
533	0.1773189	0.203354632	0.151283168
534	0.1783181	0.204522941	0.152113259
535	0.179298	0.205679153	0.152916847
536	0.180292	0.206832661	0.153751339
537	0.1812771	0.207970762	0.154583438
538	0.1822379	0.209084647	0.155391153
539	0.1832123	0.210223435	0.156201165
540	0.1841768	0.211353126	0.157000474
541	0.1851226	0.212462631	0.157782569
542	0.1860854	0.213583415	0.158587385
543	0.1870308	0.214687757	0.159373843
544	0.187956	0.215769765	0.160142235
545	0.1888662	0.216826509	0.160905891
546	0.1897756	0.217884002	0.161667198
547	0.1906875	0.21894129	0.16243371
548	0.1916077	0.220000389	0.163215011
549	0.1924894	0.221035128	0.163943672
550	0.1933625	0.222057017	0.164667983
551	0.1942307	0.223066058	0.165395342
552	0.1950771	0.224041923	0.166112277
553	0.1959093	0.225005954	0.166812646
554	0.1967293	0.225957736	0.167500864
555	0.1975312	0.226881035	0.168181365
556	0.1983149	0.227785798	0.168844002
557	0.1990941	0.228688141	0.169500059
558	0.1998741	0.229595805	0.170152395
559	0.2006498	0.23049875	0.17080085
560	0.2014052	0.231380424	0.171429976
561	0.2021287	0.232228291	0.172029109
562	0.2028549	0.233069609	0.172640191
563	0.2035522	0.233872978	0.173231422
564	0.2042259	0.234646265	0.173805535
565	0.2048882	0.235412117	0.174364283
566	0.2055165	0.236139944	0.174893056
567	0.2061308	0.236854162	0.175407438
568	0.2067435	0.237571507	0.175915493
569	0.2073607	0.238283642	0.176437758
570	0.20797	0.238987471	0.176952529
571	0.2085622	0.239675549	0.177448851
572	0.209119	0.240329865	0.177908135
573	0.2096838	0.240981721	0.178385879
574	0.2102492	0.2416243	0.1788741
575	0.2107409	0.242191423	0.179290377
576	0.2112611	0.242790661	0.179731539
577	0.2117803	0.243389141	0.180171459
578	0.2122405	0.243920062	0.180560938
579	0.2127224	0.244475809	0.180968991
580	0.213186	0.245011309	0.181360691
581	0.2136105	0.245503434	0.181717566
582	0.2140674	0.24601758	0.18211722
583	0.2145072	0.246510152	0.182504248
584	0.2149259	0.246977113	0.182874687
585	0.2152848	0.24738067	0.18318893
586	0.215615	0.247752464	0.183477536
587	0.2159454	0.24812384	0.18376696
588	0.2163228	0.248543079	0.184102521
589	0.2166671	0.248934478	0.184399722
590	0.2170193	0.249342684	0.184695916
591	0.2173967	0.249787953	0.185005447
592	0.2177934	0.250226694	0.185360106
593	0.218162	0.250642935	0.185681065
594	0.2185057	0.251041616	0.185969784
595	0.2188787	0.251460455	0.186296945
596	0.219241	0.251876793	0.186605207
597	0.2196051	0.252299507	0.186910693
598	0.2199967	0.252744971	0.187248429
599	0.2203772	0.253175393	0.187579007
600	0.2207217	0.253575468	0.187867932
601	0.2209977	0.253919667	0.188075733
602	0.2213239	0.254304203	0.188343597
603	0.2216487	0.254685549	0.188611851
604	0.2219652	0.255057438	0.188872962
605	0.222247	0.255390345	0.189103655
606	0.2224928	0.255675014	0.189310586
607	0.2227197	0.255936718	0.189502682
608	0.2229572	0.256225313	0.189689087
609	0.2231652	0.256466361	0.189864039
610	0.2233671	0.256697429	0.190036771
611	0.2235742	0.256937886	0.190210514
612	0.2238157	0.257206597	0.190424803
613	0.2240324	0.257446597	0.190618203
614	0.2242147	0.257648112	0.190781288
615	0.2244597	0.257918725	0.191000675
616	0.2246992	0.258195425	0.191202975
617	0.2249435	0.258481937	0.191405063
618	0.2252321	0.258800522	0.191663678
619	0.2255141	0.259101158	0.191927042
620	0.2257807	0.259383774	0.192177626
621	0.2260172	0.259638739	0.192395661
622	0.2262565	0.259892128	0.192620872
623	0.2265454	0.26020113	0.19288967
624	0.2268963	0.260580446	0.193212154
625	0.2271757	0.260894594	0.193456806
626	0.227477	0.261221858	0.193732142
627	0.227795	0.261562234	0.194027766
628	0.2281259	0.261933053	0.194318747
629	0.2284559	0.262294717	0.194617083
630	0.2287597	0.262628744	0.194890656
631	0.2290032	0.262905426	0.195100974
632	0.2293206	0.263252975	0.195388225
633	0.2296354	0.263601273	0.195669527
634	0.2299322	0.263937194	0.195927206
635	0.2302372	0.264264206	0.196210194
636	0.2305307	0.264584597	0.196476803
637	0.2308119	0.264896351	0.196727449
638	0.23107	0.265186914	0.196953086
639	0.2313134	0.265464419	0.197162381
640	0.2315572	0.265746091	0.197368309
641	0.2318188	0.266053379	0.197584221
642	0.2320735	0.266337299	0.197809701
643	0.2323061	0.26660045	0.19801175
644	0.2325116	0.266843106	0.198180094
645	0.2326995	0.267058843	0.198340157
646	0.232879	0.267271749	0.198486251
647	0.23306	0.267491534	0.198628466
648	0.2333008	0.26778054	0.19882106
649	0.233501	0.268032004	0.198969996
650	0.2336868	0.268268852	0.199104748
651	0.2338872	0.268515011	0.199259389
652	0.2340582	0.268722146	0.199394254
653	0.2342146	0.268905276	0.199523924
654	0.2343612	0.269067622	0.199654778
655	0.2345405	0.269289968	0.199791032
656	0.2347166	0.269522389	0.199910811
657	0.2348839	0.269752175	0.200015625
658	0.2350585	0.26996301	0.20015399
659	0.2352592	0.270190403	0.200327997
660	0.2354659	0.270420181	0.200511619
661	0.2356567	0.270637226	0.200676174
662	0.2358668	0.270875319	0.200858281
663	0.2360639	0.271096269	0.201031531
664	0.23623	0.271277437	0.201182563
665	0.2364102	0.271476401	0.201343999
666	0.2366008	0.271687621	0.201513979
667	0.2367982	0.27190605	0.20169035
668	0.2369579	0.272080263	0.201835537
669	0.2371488	0.272288434	0.202009166
670	0.2373543	0.272514836	0.202193764
671	0.2375497	0.272737108	0.202362292
672	0.2377467	0.272954083	0.202539317
673	0.2379434	0.273170824	0.202715976
674	0.238139	0.273390519	0.202887481
675	0.2383706	0.273645505	0.203095695
676	0.2386017	0.273901635	0.203301765
677	0.2388277	0.274153915	0.203501485
678	0.239027	0.274376971	0.203677029
679	0.2392222	0.274599461	0.203844939
680	0.239421	0.274825937	0.204016063
681	0.2396443	0.275068383	0.204220217
682	0.2398929	0.275341384	0.204444416
683	0.2401308	0.275601891	0.204659709
684	0.2403347	0.275822104	0.204847296
685	0.2405684	0.276063763	0.205073037
686	0.2408048	0.276334317	0.205275283
687	0.241035	0.276631342	0.205438658
688	0.241282	0.276936798	0.205627202
689	0.2416066	0.277310761	0.205902439
690	0.2419664	0.277713059	0.206219741
691	0.2422974	0.278083028	0.206511772
692	0.2426474	0.278461322	0.206833478
693	0.2430022	0.278846496	0.207157904
694	0.2433541	0.279240248	0.207467952
695	0.243739	0.279662602	0.207815398
696	0.2441438	0.28010295	0.20818465
697	0.2445697	0.280562329	0.208577071
698	0.2449314	0.280938386	0.208924414
699	0.2453168	0.281339291	0.209294309
700	0.2457149	0.281756186	0.209673614
701	0.2460895	0.282160072	0.210018928
702	0.2464996	0.28259066	0.21040854
703	0.2469049	0.283009603	0.210800197
704	0.2472762	0.283387058	0.211165342
705	0.2476631	0.283783407	0.211542793
706	0.2480547	0.284181198	0.211928202
707	0.2484487	0.284576823	0.212320577
708	0.248821	0.284956693	0.212685307
709	0.2492228	0.285360707	0.213084893
710	0.2496359	0.285771418	0.213500382
711	0.249989	0.286119374	0.213858626
712	0.2503413	0.286468639	0.214213961
713	0.2506899	0.28680704	0.21457276
714	0.2510337	0.287118783	0.214948617
715	0.2512713	0.28729773	0.21524487
716	0.2514861	0.287453915	0.215518285
717	0.251693	0.287610407	0.215775593
718	0.2519777	0.287916413	0.216038987
719	0.2523602	0.288341145	0.216379255
720	0.2528007	0.288828045	0.216773355
721	0.2532848	0.289300412	0.217269188
722	0.2536382	0.289625866	0.217650534
723	0.2539419	0.28990391	0.21797989
724	0.2542223	0.290186915	0.218257685
725	0.2546172	0.29058089	0.21865351
726	0.2550005	0.290966452	0.219034548
727	0.2553385	0.291312211	0.219364789
728	0.2557067	0.291709918	0.219703482
729	0.2560775	0.29211172	0.22004328
730	0.2564537	0.292520033	0.220387367
731	0.2568951	0.292999194	0.220791006
732	0.2573168	0.293444856	0.221188744
733	0.2577179	0.293861641	0.221574159
734	0.2580957	0.294250799	0.221940601
735	0.2584534	0.29462324	0.22228356
736	0.2588141	0.295003232	0.222624968
737	0.2591859	0.295399684	0.222972116
738	0.259485	0.295717061	0.223252939
739	0.2598224	0.296075772	0.223569028
740	0.26019	0.296468061	0.223911939
741	0.2604891	0.296791682	0.224186518
742	0.2608042	0.297136271	0.224472129
743	0.2611292	0.297494348	0.224764052
744	0.2614639	0.297867419	0.225060381
745	0.2617599	0.298187409	0.225332391
746	0.2620589	0.298511518	0.225606282
747	0.2623806	0.298865362	0.225895838
748	0.2627095	0.299217648	0.226201352
749	0.2630094	0.29954573	0.22647307
750	0.2632787	0.299847739	0.226709661
751	0.2635451	0.300142455	0.226947745
752	0.2638561	0.300487449	0.227224751
753	0.2641864	0.300852288	0.227520512
754	0.2644961	0.301188932	0.227803268
755	0.2647818	0.301506765	0.228056835
756	0.2650334	0.301768522	0.228298278
757	0.2652481	0.301947006	0.228549194
758	0.2652654	0.301851756	0.228679044
759	0.2651962	0.30174115	0.22865125
760	0.2650409	0.301729569	0.228352231
761	0.2653282	0.302074908	0.228581492
762	0.2656747	0.302499168	0.228850232
763	0.2660752	0.302990258	0.229160142
764	0.2664908	0.303492381	0.229489219
765	0.2669678	0.304020092	0.229915508
766	0.2674058	0.304490653	0.230320947
767	0.2678089	0.304914108	0.230703692
768	0.2681466	0.305288211	0.231004989
769	0.2684301	0.305602687	0.231257513
770	0.2686671	0.305863829	0.231470371
771	0.2689404	0.306166241	0.231714559
772	0.2691892	0.30644325	0.23193515
773	0.2694214	0.306702674	0.232140126
774	0.2696443	0.306950689	0.232337911
775	0.2698765	0.307206367	0.232546633
776	0.2701109	0.307465073	0.232756727
777	0.2703452	0.307727677	0.232962723
778	0.2705625	0.307970747	0.233154253
779	0.270766	0.308202187	0.233329813
780	0.2709559	0.308423264	0.233488536
781	0.2711834	0.308665724	0.233701076
782	0.2713731	0.308871452	0.233874748
783	0.2715439	0.309059384	0.234028416
784	0.2717521	0.309290641	0.234213559
785	0.2719	0.309458666	0.234341334
786	0.2720337	0.309607906	0.234459494
787	0.2721867	0.309768657	0.234604743
788	0.2723438	0.309942237	0.234745363
789	0.2725148	0.310130201	0.234899399
790	0.2727022	0.310333823	0.235070577
791	0.2728874	0.310529325	0.235245475
792	0.2730545	0.310719405	0.235389595
793	0.2732122	0.310906285	0.235518115
794	0.2734038	0.311104068	0.235703532
795	0.2735672	0.311282021	0.235852379
796	0.2737317	0.311464031	0.235999369
797	0.2739283	0.311675834	0.236180766
798	0.2740602	0.31181017	0.23631023
799	0.2741848	0.311938426	0.236431174
800	0.2743137	0.312076145	0.236551255
801	0.2744578	0.312237239	0.236678361
802	0.2746121	0.312411172	0.236813028
803	0.2747698	0.312588002	0.236951598
804	0.2748824	0.312702396	0.237062404
805	0.2750037	0.312829171	0.237178229
806	0.2751266	0.312952837	0.237300363
807	0.2752445	0.313053773	0.237435227
808	0.2753285	0.313129432	0.237527568
809	0.2753911	0.313189788	0.237592412
810	0.2754315	0.313235212	0.237627788
811	0.2754891	0.31326741	0.23771079
812	0.2754548	0.313192992	0.237716608
813	0.2753443	0.313031066	0.237657534
814	0.2753297	0.312981448	0.237677952
815	0.2753609	0.312983736	0.237738064
816	0.2754254	0.313033019	0.237817781
817	0.2755199	0.313147318	0.237892482
818	0.2756818	0.313326303	0.238037297
819	0.2758453	0.313510311	0.238180289
820	0.2759898	0.313682588	0.238297012
821	0.2758573	0.313461049	0.238253551
822	0.2758467	0.313421116	0.238272284
823	0.2759784	0.313591887	0.238364913
824	0.2761881	0.313854861	0.238521339
825	0.2762137	0.313875751	0.238551649
826	0.276168	0.313793924	0.238542076
827	0.2761876	0.313769074	0.238606126
828	0.2762233	0.313800486	0.238646114
829	0.2762814	0.313859697	0.238703103
830	0.2763715	0.313942016	0.238800984
831	0.2763797	0.313958196	0.238801204
832	0.2764226	0.314008197	0.238837003
833	0.2765058	0.314097439	0.238914161
834	0.276591	0.314199914	0.238982086
835	0.2767334	0.314353442	0.239113358
836	0.2768855	0.314511508	0.239259492
837	0.2769514	0.314574252	0.239328548
838	0.2770258	0.314662544	0.239389056
839	0.2771094	0.31475849	0.23946031
840	0.2772066	0.314856124	0.239557076
841	0.2772076	0.314835393	0.239579807
842	0.2772426	0.314847362	0.239637838
843	0.2773224	0.314905467	0.239739333
844	0.2773971	0.314971118	0.239823082
845	0.2774242	0.314983208	0.239865192
846	0.2774228	0.31496332	0.23988228
847	0.2774261	0.314949409	0.239902791
848	0.2773906	0.314894294	0.239886906
849	0.277362	0.314846243	0.239877757
850	0.277376	0.314843622	0.239908378
851	0.2773565	0.31481541	0.23989759
852	0.2773601	0.314790565	0.239929635
853	0.2773949	0.314772607	0.240017193
854	0.2774114	0.314787129	0.240035671
855	0.2774553	0.314843282	0.240067318
856	0.2774894	0.314892881	0.240085919
857	0.2774021	0.314794258	0.240009942
858	0.2774245	0.314806658	0.240042342
859	0.2774694	0.314843431	0.240095369
860	0.2774767	0.314847402	0.240105998
861	0.2774977	0.314843496	0.240151904
862	0.27751	0.314837005	0.240182995
863	0.27751	0.314829832	0.240190168
864	0.2775076	0.314787563	0.240227637
865	0.2774514	0.314692637	0.240210163
866	0.277374	0.314584166	0.240163834
867	0.2773996	0.314615654	0.240183546
868	0.2773979	0.314608693	0.240187107
869	0.2774217	0.314623569	0.240219831
870	0.2775326	0.314726135	0.240339065
871	0.2775503	0.314711019	0.240389581
872	0.2775273	0.314665878	0.240388722
873	0.2774698	0.314607042	0.240332558
874	0.2775513	0.31470057	0.24040203
875	0.2776291	0.314780713	0.240477487
876	0.2776982	0.314845374	0.240551026
877	0.2777323	0.314881517	0.240583083
878	0.2777511	0.314891145	0.240611055
879	0.2777549	0.314878842	0.240630958
