Wavelength	Mean	Std+	Std-	FWHM
350	0.14248275	0.160029401	0.124936099	0.006
351	0.14298535	0.160563007	0.125407693	0.006
352	0.143471425	0.161007286	0.125935564	0.006
353	0.143862825	0.161388875	0.126336775	0.006
354	0.144349925	0.161888189	0.126811661	0.006
355	0.144941575	0.162508406	0.127374744	0.006
356	0.14552185	0.163074443	0.127969257	0.006
357	0.1460661	0.163660664	0.128471536	0.006
358	0.1466056	0.164266167	0.128945033	0.006
359	0.147215725	0.164911577	0.129519873	0.006
360	0.14785095	0.165548649	0.130153251	0.006
361	0.14854955	0.166261137	0.130837963	0.006
362	0.1493671	0.16713557	0.13159863	0.006
363	0.1498997	0.167721142	0.132078258	0.006
364	0.1505427	0.168424304	0.132661096	0.006
365	0.151330425	0.169275845	0.133385005	0.006
366	0.15205855	0.16996974	0.13414736	0.006
367	0.152787575	0.170667172	0.134907978	0.006
368	0.15349655	0.1713666	0.1356265	0.006
369	0.15409395	0.172051573	0.136136327	0.006
370	0.15501205	0.172957792	0.137066308	0.006
371	0.15603565	0.173975796	0.138095504	0.006
372	0.1570427	0.175058732	0.139026668	0.006
373	0.158005125	0.176059661	0.139950589	0.006
374	0.159139025	0.177221108	0.141056942	0.006
375	0.160483925	0.178587987	0.142379863	0.006
376	0.16165055	0.179886634	0.143414466	0.006
377	0.16288555	0.181212158	0.144558942	0.006
378	0.164154825	0.182539866	0.145769784	0.006
379	0.1652831	0.183708595	0.146857605	0.006
380	0.16654795	0.185035486	0.148060414	0.006
381	0.167884875	0.186438265	0.149331485	0.006
382	0.16925865	0.187866758	0.150650542	0.006
383	0.1706558	0.189342219	0.151969381	0.006
384	0.171999575	0.190809049	0.153190101	0.006
385	0.17328155	0.192266322	0.154296778	0.006
386	0.17494885	0.194032758	0.155864942	0.006
387	0.176428475	0.195629536	0.157227414	0.006
388	0.17776545	0.197082051	0.158448849	0.006
389	0.179163675	0.198517649	0.159809701	0.006
390	0.18032115	0.199748046	0.160894254	0.006
391	0.1813876	0.20091603	0.16185917	0.006
392	0.18249485	0.202163265	0.162826435	0.006
393	0.1837893	0.203512745	0.164065855	0.006
394	0.185124625	0.204932941	0.165316309	0.006
395	0.186437425	0.206382918	0.166491932	0.006
396	0.1877215	0.207785793	0.167657207	0.006
397	0.188967675	0.209142819	0.168792531	0.006
398	0.190156675	0.210439966	0.169873384	0.006
399	0.191265975	0.211682506	0.170849444	0.006
400	0.19220045	0.212681035	0.171719865	0.006
401	0.193040425	0.213556416	0.172524434	0.006
402	0.193896	0.214447969	0.173344031	0.006
403	0.19476955	0.21537561	0.17416349	0.006
404	0.19566635	0.216314572	0.175018128	0.006
405	0.19661125	0.217282217	0.175940283	0.006
406	0.197484525	0.218232949	0.176736101	0.006
407	0.19849315	0.219319598	0.177666702	0.006
408	0.19959765	0.220504165	0.178691135	0.006
409	0.200611825	0.221621123	0.179602527	0.006
410	0.2016488	0.222740266	0.180557334	0.006
411	0.202683325	0.223850755	0.181515895	0.006
412	0.203718475	0.224971849	0.182465101	0.006
413	0.204736225	0.226081651	0.183390799	0.006
414	0.20575045	0.227178793	0.184322107	0.006
415	0.2067851	0.228281933	0.185288267	0.006
416	0.207859225	0.229445169	0.186273281	0.006
417	0.208940625	0.230615261	0.187265989	0.006
418	0.210027325	0.231789754	0.188264896	0.006
419	0.2111321	0.23298654	0.18927766	0.006
420	0.212291925	0.234245877	0.190337973	0.006
421	0.213481475	0.235532527	0.191430423	0.006
422	0.214690075	0.236819267	0.192560883	0.006
423	0.215934925	0.238154215	0.193715635	0.006
424	0.217188975	0.239501821	0.194876129	0.006
425	0.218457075	0.240864494	0.196049656	0.006
426	0.2196725	0.242154107	0.197190893	0.006
427	0.22099405	0.243570702	0.198417398	0.006
428	0.2224396	0.245134522	0.199744678	0.006
429	0.22395625	0.246768344	0.201144156	0.006
430	0.225518675	0.248443934	0.202593416	0.006
431	0.2270971	0.250138769	0.204055431	0.006
432	0.22868825	0.251869353	0.205507147	0.006
433	0.2303256	0.253631546	0.207019654	0.006
434	0.231909875	0.255334067	0.208485683	0.006
435	0.23340205	0.256940914	0.209863186	0.006
436	0.2348919	0.258531557	0.211252243	0.006
437	0.236353275	0.260073656	0.212632894	0.006
438	0.237801775	0.261587448	0.214016102	0.006
439	0.2393721	0.263262035	0.215482165	0.006
440	0.240877	0.264866777	0.216887223	0.006
441	0.2423303	0.266414917	0.218245683	0.006
442	0.243765075	0.267936607	0.219593543	0.006
443	0.245184325	0.269453734	0.220914916	0.006
444	0.246567725	0.270936151	0.222199299	0.006
445	0.2478918	0.272355424	0.223428176	0.006
446	0.2491591	0.273681621	0.224636579	0.006
447	0.250402575	0.274995008	0.225810142	0.006
448	0.25162795	0.276307105	0.226948795	0.006
449	0.25273085	0.277496382	0.227965318	0.006
450	0.253786125	0.278626587	0.228945663	0.006
451	0.254807025	0.279714143	0.229899907	0.006
452	0.255798325	0.280765753	0.230830897	0.006
453	0.25677305	0.281807429	0.231738671	0.006
454	0.2577165	0.282823634	0.232609366	0.006
455	0.258603875	0.283790797	0.233416953	0.006
456	0.259410625	0.284681977	0.234139273	0.006
457	0.26020435	0.285561718	0.234846982	0.006
458	0.260987425	0.286431155	0.235543695	0.006
459	0.26169975	0.287218701	0.236180799	0.006
460	0.262368975	0.287952545	0.236785405	0.006
461	0.2630083	0.288651177	0.237365423	0.006
462	0.26363955	0.289351625	0.237927475	0.006
463	0.2642319	0.290018304	0.238445496	0.006
464	0.2647925	0.290648968	0.238936032	0.006
465	0.265308875	0.291220556	0.239397194	0.006
466	0.265821075	0.291787369	0.239854781	0.006
467	0.26634035	0.292368128	0.240312572	0.006
468	0.266869325	0.292968144	0.240770506	0.006
469	0.267433525	0.293602934	0.241264116	0.006
470	0.26797405	0.294209606	0.241738494	0.006
471	0.268502725	0.294801102	0.242204348	0.006
472	0.269078875	0.295441765	0.242715985	0.006
473	0.269670825	0.296101098	0.243240552	0.006
474	0.2702644	0.296762962	0.243765838	0.006
475	0.2708487	0.297415248	0.244282152	0.006
476	0.271504875	0.298138693	0.244871057	0.006
477	0.2721773	0.298884499	0.245470101	0.006
478	0.272857425	0.299646516	0.246068334	0.006
479	0.2736029	0.300467939	0.246737861	0.006
480	0.27438425	0.301323639	0.247444861	0.006
481	0.275188725	0.302200304	0.248177146	0.006
482	0.275962825	0.303037715	0.248887935	0.006
483	0.276805825	0.303945742	0.249665908	0.006
484	0.2777152	0.304927096	0.250503304	0.006
485	0.278702575	0.306002335	0.251402815	0.006
486	0.2797107	0.307120613	0.252300787	0.006
487	0.28076655	0.308292057	0.253241043	0.006
488	0.28188175	0.309523614	0.254239886	0.006
489	0.2830084	0.310763096	0.255253704	0.006
490	0.28416565	0.31202438	0.25630692	0.006
491	0.2853339	0.313286561	0.257381239	0.006
492	0.2865081	0.314538762	0.258477438	0.006
493	0.2877071	0.315830013	0.259584187	0.006
494	0.288934925	0.317155991	0.260713859	0.006
495	0.29022245	0.318539416	0.261905484	0.006
496	0.29150335	0.319915387	0.263091313	0.006
497	0.29279615	0.321295271	0.264297029	0.006
498	0.294121125	0.322695124	0.265547126	0.006
499	0.295505725	0.3241772	0.26683425	0.006
500	0.296904425	0.325682281	0.268126569	0.006
501	0.298313725	0.327204087	0.269423363	0.006
502	0.2997422	0.328733303	0.270751097	0.006
503	0.3011613	0.330261954	0.272060646	0.006
504	0.3025791	0.331785341	0.273372859	0.006
505	0.30403875	0.333325158	0.274752342	0.006
506	0.305482225	0.334864508	0.276099942	0.006
507	0.30691955	0.336397807	0.277441293	0.006
508	0.308366825	0.337935034	0.278798616	0.006
509	0.3097969	0.339459816	0.280133984	0.006
510	0.31124965	0.341007373	0.281491927	0.006
511	0.3127274	0.342578993	0.282875807	0.006
512	0.3141577	0.344088076	0.284227324	0.006
513	0.3155885	0.345597616	0.285579384	0.006
514	0.3170333	0.347125527	0.286941073	0.006
515	0.318503725	0.348694752	0.288312698	0.006
516	0.320048675	0.350357266	0.289740084	0.006
517	0.321619525	0.352049537	0.291189513	0.006
518	0.3231795	0.353726362	0.292632638	0.006
519	0.324765225	0.355443349	0.294087101	0.006
520	0.326336675	0.35713947	0.29553388	0.006
521	0.327875125	0.358791318	0.296958932	0.006
522	0.329379025	0.360375747	0.298382303	0.006
523	0.33087465	0.361957172	0.299792128	0.006
524	0.33238865	0.363561417	0.301215883	0.006
525	0.3339778	0.365245633	0.302709967	0.006
526	0.335601	0.366978652	0.304223348	0.006
527	0.3372164	0.368708048	0.305724752	0.006
528	0.338810675	0.370416577	0.307204773	0.006
529	0.340429075	0.372147458	0.308710692	0.006
530	0.342020675	0.37384546	0.31019589	0.006
531	0.3435774	0.37550126	0.31165354	0.006
532	0.345165925	0.377170905	0.313160945	0.006
533	0.346781825	0.378883871	0.314679779	0.006
534	0.348418325	0.38062777	0.31620888	0.006
535	0.350042	0.382357991	0.317726009	0.006
536	0.35164775	0.384066525	0.319228975	0.006
537	0.35324245	0.385759996	0.320724904	0.006
538	0.354838	0.387449351	0.322226649	0.006
539	0.3564415	0.389154121	0.323728879	0.006
540	0.358068125	0.390886878	0.325249372	0.006
541	0.359712725	0.392641648	0.326783802	0.006
542	0.361362275	0.394401036	0.328323514	0.006
543	0.362991375	0.3961347	0.32984805	0.006
544	0.3645985	0.397841168	0.331355832	0.006
545	0.366204825	0.399541054	0.332868596	0.006
546	0.367799825	0.401231592	0.334368058	0.006
547	0.36940465	0.402933418	0.335875882	0.006
548	0.37104835	0.404676135	0.337420565	0.006
549	0.372693325	0.406418634	0.338968016	0.006
550	0.374333325	0.408158605	0.340508045	0.006
551	0.3759651	0.409893474	0.342036726	0.006
552	0.37760455	0.411634142	0.343574958	0.006
553	0.379210375	0.413337639	0.345083111	0.006
554	0.380798875	0.415020435	0.346577315	0.006
555	0.382414975	0.416725579	0.348104371	0.006
556	0.38401585	0.41841239	0.34961931	0.006
557	0.3856271	0.420113484	0.351140716	0.006
558	0.3872671	0.421856133	0.352678067	0.006
559	0.388916825	0.423620891	0.354212759	0.006
560	0.39055105	0.425365147	0.355736953	0.006
561	0.39215155	0.427064045	0.357239055	0.006
562	0.393712375	0.428717336	0.358707414	0.006
563	0.39527215	0.430365349	0.360178951	0.006
564	0.396835175	0.432013493	0.361656857	0.006
565	0.3983925	0.433657303	0.363127697	0.006
566	0.3999121	0.435270871	0.364553329	0.006
567	0.401415725	0.436869877	0.365961573	0.006
568	0.402909525	0.438452708	0.367366342	0.006
569	0.404360425	0.439988722	0.368732128	0.006
570	0.40581345	0.441527276	0.370099624	0.006
571	0.4072787	0.443080107	0.371477293	0.006
572	0.40871415	0.444604938	0.372823362	0.006
573	0.4101182	0.446093352	0.374143048	0.006
574	0.41149095	0.447544869	0.375437031	0.006
575	0.412818025	0.448941243	0.376694807	0.006
576	0.4141502	0.450349523	0.377950877	0.006
577	0.415482675	0.451762117	0.379203233	0.006
578	0.416783225	0.453142645	0.380423805	0.006
579	0.418072625	0.454509076	0.381636174	0.006
580	0.419340975	0.455852491	0.382829459	0.006
581	0.420574275	0.457158043	0.383990507	0.006
582	0.421734775	0.4583699	0.38509965	0.006
583	0.42286695	0.459549369	0.386184531	0.006
584	0.4239777	0.460705099	0.387250301	0.006
585	0.42504985	0.461824452	0.388275248	0.006
586	0.4260716	0.462885932	0.389257268	0.006
587	0.427071	0.463923594	0.390218406	0.006
588	0.428055725	0.464953829	0.391157621	0.006
589	0.4290375	0.465991925	0.392083075	0.006
590	0.43002385	0.467039557	0.393008143	0.006
591	0.4310072	0.468086738	0.393927662	0.006
592	0.431937075	0.469053693	0.394820457	0.006
593	0.4328432	0.469996224	0.395690176	0.006
594	0.433736275	0.470927619	0.396544931	0.006
595	0.43462225	0.471855723	0.397388777	0.006
596	0.435502125	0.472776181	0.398228069	0.006
597	0.4363706	0.47368362	0.39905758	0.006
598	0.437196275	0.474545903	0.399846647	0.006
599	0.438013325	0.47540216	0.40062449	0.006
600	0.4388228	0.476250569	0.401395031	0.006
601	0.43961265	0.477076334	0.402148966	0.006
602	0.440362625	0.477869078	0.402856172	0.006
603	0.44109305	0.478638109	0.403547991	0.006
604	0.44180335	0.479381177	0.404225523	0.006
605	0.44246915	0.480068863	0.404869437	0.006
606	0.443119375	0.480736992	0.405501758	0.006
607	0.443754625	0.481387456	0.406121794	0.006
608	0.4443448	0.481992993	0.406696607	0.006
609	0.44497225	0.482632087	0.407312413	0.006
610	0.445597375	0.483269032	0.407925718	0.006
611	0.446177975	0.483864404	0.408491546	0.006
612	0.44676385	0.484454701	0.409072999	0.006
613	0.447325475	0.48502102	0.40962993	0.006
614	0.447859	0.485561196	0.410156804	0.006
615	0.4484666	0.486176634	0.410756566	0.006
616	0.449091375	0.486811394	0.411371356	0.006
617	0.449722625	0.487452585	0.411992665	0.006
618	0.45032865	0.488060675	0.412596625	0.006
619	0.45083785	0.488562448	0.413113252	0.006
620	0.451314775	0.489026266	0.413603284	0.006
621	0.4517958	0.489488649	0.414102951	0.006
622	0.45230495	0.489987101	0.414622799	0.006
623	0.452870675	0.490545841	0.415195509	0.006
624	0.453500725	0.491172843	0.415828607	0.006
625	0.454099225	0.491787614	0.416410836	0.006
626	0.4547044	0.492402743	0.417006057	0.006
627	0.4553176	0.493020107	0.417615093	0.006
628	0.455964925	0.493665343	0.418264507	0.006
629	0.4565961	0.494304437	0.418887763	0.006
630	0.457211125	0.494922828	0.419499422	0.006
631	0.45780595	0.495501199	0.420110701	0.006
632	0.4583423	0.496024072	0.420660528	0.006
633	0.45890095	0.496576584	0.421225316	0.006
634	0.459500925	0.497179241	0.421822609	0.006
635	0.4601172	0.497798672	0.422435728	0.006
636	0.46070635	0.498377605	0.423035095	0.006
637	0.461278775	0.498930533	0.423627017	0.006
638	0.461876425	0.499515593	0.424237257	0.006
639	0.4624699	0.500112262	0.424827538	0.006
640	0.463057225	0.500706886	0.425407564	0.006
641	0.463633975	0.501283983	0.425983967	0.006
642	0.4642361	0.501888644	0.426583556	0.006
643	0.464827675	0.502485475	0.427169875	0.006
644	0.465401875	0.50306798	0.42773577	0.006
645	0.465932275	0.503609078	0.428255472	0.006
646	0.466483725	0.504182181	0.428785269	0.006
647	0.467052175	0.50477958	0.42932477	0.006
648	0.467607025	0.505353044	0.429861006	0.006
649	0.468207375	0.505984828	0.430429922	0.006
650	0.4688118	0.50662426	0.43099934	0.006
651	0.4693721	0.507213926	0.431530274	0.006
652	0.469892825	0.507745175	0.432040475	0.006
653	0.470412025	0.508273577	0.432550473	0.006
654	0.470952325	0.5088282	0.43307645	0.006
655	0.4715631	0.509490659	0.433635541	0.006
656	0.472211275	0.510202098	0.434220452	0.006
657	0.472865375	0.510919303	0.434811447	0.006
658	0.473482975	0.511535754	0.435430196	0.006
659	0.4740729	0.512122852	0.436022948	0.006
660	0.47466185	0.512711209	0.436612491	0.006
661	0.475294075	0.513352554	0.437235596	0.006
662	0.475923525	0.514002443	0.437844607	0.006
663	0.476531425	0.514628125	0.438434725	0.006
664	0.477102325	0.515207555	0.438997095	0.006
665	0.477674375	0.51579895	0.4395498	0.006
666	0.4782436	0.51638164	0.44010556	0.006
667	0.478813125	0.516959174	0.440667076	0.006
668	0.4794071	0.517568417	0.441245783	0.006
669	0.479984975	0.518154278	0.441815672	0.006
670	0.480551125	0.518726857	0.442375393	0.006
671	0.481102275	0.519292501	0.442912049	0.006
672	0.4816694	0.519873763	0.443465037	0.006
673	0.482241425	0.520461008	0.444021842	0.006
674	0.482816525	0.521053153	0.444579897	0.006
675	0.4833751	0.521627824	0.445122376	0.006
676	0.483934875	0.52220316	0.44566659	0.006
677	0.48449565	0.52277928	0.44621202	0.006
678	0.48502915	0.523326494	0.446731806	0.006
679	0.4855946	0.523905719	0.447283481	0.006
680	0.48616815	0.524492677	0.447843623	0.006
681	0.486697525	0.525033984	0.448361066	0.006
682	0.487216225	0.525558982	0.448873468	0.006
683	0.487715275	0.526054922	0.449375628	0.006
684	0.4881875	0.526508644	0.449866356	0.006
685	0.488651475	0.526986214	0.450316736	0.006
686	0.48917605	0.527562538	0.450789562	0.006
687	0.4897666	0.52824497	0.45128823	0.006
688	0.490376925	0.528892485	0.451861365	0.006
689	0.49094645	0.529468761	0.452424139	0.006
690	0.49148445	0.529991842	0.452977058	0.006
691	0.492034425	0.530513731	0.453555119	0.006
692	0.492559325	0.531019596	0.454099054	0.006
693	0.4930985	0.531549276	0.454647724	0.006
694	0.4936879	0.532143381	0.455232419	0.006
695	0.494281825	0.53276139	0.45580226	0.006
696	0.494850825	0.533346859	0.456354791	0.006
697	0.495394275	0.533895177	0.456893373	0.006
698	0.495935875	0.534439638	0.457432112	0.006
699	0.496471125	0.534991965	0.457950285	0.006
700	0.49701025	0.535556816	0.458463684	0.006
701	0.49758325	0.536150123	0.459016377	0.006
702	0.4981673	0.536759598	0.459575002	0.006
703	0.498744825	0.537360688	0.460128962	0.006
704	0.499306275	0.53793751	0.46067504	0.006
705	0.49984025	0.538482564	0.461197936	0.006
706	0.500396125	0.539055243	0.461737007	0.006
707	0.5009847	0.539668785	0.462300615	0.006
708	0.501525775	0.540231491	0.462820059	0.006
709	0.5020979	0.540818814	0.463376986	0.006
710	0.5026857	0.541418624	0.463952776	0.006
711	0.50323545	0.541987341	0.464483559	0.006
712	0.50375235	0.542519728	0.464984972	0.006
713	0.5042434	0.543014554	0.465472246	0.006
714	0.5047033	0.543451477	0.465955123	0.006
715	0.5050496	0.543738571	0.466360629	0.006
716	0.50541985	0.544059413	0.466780287	0.006
717	0.505856625	0.544471161	0.467242089	0.006
718	0.506465725	0.545142459	0.467788991	0.006
719	0.507096175	0.545847653	0.468344697	0.006
720	0.507696925	0.546517701	0.468876149	0.006
721	0.50819145	0.547006455	0.469376445	0.006
722	0.50865495	0.547445756	0.469864144	0.006
723	0.5091559	0.547930345	0.470381455	0.006
724	0.5097588	0.548561593	0.470956007	0.006
725	0.51030485	0.549129837	0.471479863	0.006
726	0.5108467	0.549694118	0.471999282	0.006
727	0.511404825	0.550277267	0.472532383	0.006
728	0.51195215	0.550858649	0.473045651	0.006
729	0.512509425	0.551461733	0.473557117	0.006
730	0.51307895	0.552085981	0.474071919	0.006
731	0.5137292	0.552787541	0.474670859	0.006
732	0.5143273	0.55342334	0.47523126	0.006
733	0.5148998	0.554022137	0.475777463	0.006
734	0.5154817	0.554615229	0.476348171	0.006
735	0.51602565	0.555184023	0.476867277	0.006
736	0.516561525	0.555744746	0.477378304	0.006
737	0.517097325	0.556300485	0.477894165	0.006
738	0.517631075	0.556869471	0.478392679	0.006
739	0.518165375	0.557433851	0.478896899	0.006
740	0.51870525	0.557998212	0.479412288	0.006
741	0.51931285	0.558628955	0.479996745	0.006
742	0.5198754	0.559216128	0.480534672	0.006
743	0.520398775	0.559763899	0.481033651	0.006
744	0.52087665	0.560263099	0.481490201	0.006
745	0.5213871	0.56078814	0.48198606	0.006
746	0.521900925	0.561308969	0.482492881	0.006
747	0.52240945	0.56181448	0.48300442	0.006
748	0.52289025	0.562310304	0.483470196	0.006
749	0.523391425	0.562832892	0.483949958	0.006
750	0.523909925	0.563377656	0.484442194	0.006
751	0.52440165	0.563896729	0.484906571	0.006
752	0.5249111	0.564418161	0.485404039	0.006
753	0.525409275	0.564918874	0.485899676	0.006
754	0.52583125	0.565340169	0.486322331	0.006
755	0.526265975	0.56577376	0.48675819	0.006
756	0.5266054	0.566072765	0.487138035	0.006
757	0.5267643	0.566110893	0.487417707	0.006
758	0.52652015	0.5657848	0.4872555	0.006
759	0.526966775	0.566436482	0.487497068	0.006
760	0.5287173	0.568884455	0.488550145	0.006
761	0.529005925	0.56907308	0.48893877	0.006
762	0.5293615	0.569399571	0.489323429	0.006
763	0.52978845	0.569815645	0.489761255	0.006
764	0.530279325	0.570251128	0.490307522	0.006
765	0.530710225	0.570595196	0.490825254	0.006
766	0.531111975	0.570913861	0.491310089	0.006
767	0.531538275	0.571267779	0.491808771	0.006
768	0.531984875	0.571682716	0.492287034	0.006
769	0.532411725	0.572094644	0.492728806	0.006
770	0.53282055	0.572501531	0.493139569	0.006
771	0.53324115	0.572911825	0.493570475	0.006
772	0.533627675	0.573282761	0.493972589	0.006
773	0.534002775	0.573646275	0.494359275	0.006
774	0.5344223	0.574087596	0.494757004	0.006
775	0.5348053	0.574473813	0.495136787	0.006
776	0.5351677	0.574834207	0.495501193	0.006
777	0.535515675	0.575182977	0.495848373	0.006
778	0.535891675	0.575564103	0.496219247	0.006
779	0.536260575	0.575941587	0.496579563	0.006
780	0.536614925	0.576307575	0.496922275	0.006
781	0.536967875	0.576656891	0.497278859	0.006
782	0.537337475	0.577032726	0.497642224	0.006
783	0.537715875	0.577422652	0.498009098	0.006
784	0.538065025	0.577773631	0.498356419	0.006
785	0.538421025	0.578122254	0.498719796	0.006
786	0.5387623	0.578448937	0.499075663	0.006
787	0.5390601	0.578722997	0.499397203	0.006
788	0.539357825	0.57900855	0.4997071	0.006
789	0.53965705	0.57931159	0.50000251	0.006
790	0.539958175	0.579635645	0.500280705	0.006
791	0.5402755	0.579955651	0.500595349	0.006
792	0.5406211	0.580314607	0.500927593	0.006
