Wavelength	Mean	Std+	Std-
350	0.0742541	0.083140184	0.065368016
351	0.07445915	0.083350956	0.065567344
352	0.07469505	0.083543387	0.065846713
353	0.07541015	0.084324063	0.066496237
354	0.0757825	0.084750421	0.066814579
355	0.0758099	0.084810189	0.066809611
356	0.0763129	0.085316735	0.067309065
357	0.07664655	0.085701542	0.067591558
358	0.0769314	0.086052059	0.067810741
359	0.07740865	0.086545755	0.068271545
360	0.07807725	0.087260938	0.068893562
361	0.07869125	0.087916283	0.069466217
362	0.07909675	0.088334575	0.069858925
363	0.0795437	0.088829476	0.070257924
364	0.07995955	0.089295567	0.070623533
365	0.0803349	0.089717985	0.070951815
366	0.08073165	0.090132809	0.071330491
367	0.0811749	0.090630068	0.071719732
368	0.0816453	0.09116272	0.07212788
369	0.0820972	0.091614714	0.072579686
370	0.08249175	0.092051553	0.072931947
371	0.08294685	0.09257012	0.07332358
372	0.08356765	0.093267604	0.073867696
373	0.0842253	0.093934364	0.074516236
374	0.0848917	0.094661305	0.075122095
375	0.08556775	0.09546914	0.07566636
376	0.0864286	0.096370386	0.076486814
377	0.0871538	0.097173428	0.077134172
378	0.08777955	0.097890708	0.077668392
379	0.08833545	0.098463476	0.078207424
380	0.0889612	0.099098241	0.078824159
381	0.08965205	0.099829946	0.079474154
382	0.09043015	0.100728675	0.080131625
383	0.09137355	0.101751007	0.080996093
384	0.09213605	0.102599195	0.081672905
385	0.092651	0.10321627	0.08208573
386	0.09372605	0.104361048	0.083091052
387	0.09448305	0.105197726	0.083768374
388	0.09502315	0.105821787	0.084224513
389	0.09566405	0.106534002	0.084794098
390	0.0965367	0.107454644	0.085618756
391	0.09733215	0.108306122	0.086358178
392	0.0977479	0.108822381	0.086673419
393	0.09858695	0.109736345	0.087437555
394	0.0994214	0.11065229	0.08819051
395	0.1001415	0.111465532	0.088817468
396	0.10080665	0.112218511	0.089394789
397	0.1016175	0.113104016	0.090130984
398	0.10246665	0.11401907	0.09091423
399	0.10304725	0.114669965	0.091424535
400	0.10353065	0.115194777	0.091866523
401	0.10402365	0.115722783	0.092324517
402	0.10468245	0.116432136	0.092932764
403	0.1051777	0.116956241	0.093399159
404	0.10565325	0.117467715	0.093838785
405	0.10615595	0.118022364	0.094289536
406	0.10683675	0.118767149	0.094906351
407	0.10743365	0.11941459	0.09545271
408	0.10798975	0.120011759	0.095967741
409	0.1087835	0.120857867	0.096709133
410	0.10936645	0.121487305	0.097245595
411	0.10988665	0.122051934	0.097721366
412	0.11051055	0.122723757	0.098297343
413	0.1111236	0.123388641	0.098858559
414	0.1117097	0.124018113	0.099401287
415	0.1122697	0.124607926	0.099931474
416	0.11296565	0.125354717	0.100576583
417	0.11367015	0.126108486	0.101231814
418	0.11437135	0.12685547	0.10188723
419	0.1150276	0.12755117	0.10250403
420	0.1157017	0.128282265	0.103121135
421	0.11637715	0.129019149	0.103735151
422	0.1170334	0.129722377	0.104344423
423	0.11780555	0.130547197	0.105063903
424	0.1186245	0.131420211	0.105828789
425	0.11948395	0.132334131	0.106633769
426	0.1202386	0.133132412	0.107344788
427	0.12103755	0.133982326	0.108092774
428	0.1218928	0.134897575	0.108888025
429	0.12277015	0.135845038	0.109695262
430	0.1236941	0.136840867	0.110547333
431	0.12464325	0.137863824	0.111422676
432	0.12561695	0.138916807	0.112317093
433	0.12657355	0.13994623	0.11320087
434	0.12752735	0.140967232	0.114087468
435	0.12849995	0.142001461	0.114998439
436	0.12941955	0.14297721	0.11586189
437	0.1302919	0.143910688	0.116673112
438	0.1311335	0.144818907	0.117448093
439	0.13207585	0.145820677	0.118331023
440	0.13298265	0.146789092	0.119176208
441	0.13386645	0.147736056	0.119996844
442	0.13476175	0.148695262	0.120828238
443	0.13559045	0.14957941	0.12160149
444	0.136376	0.150416537	0.122335463
445	0.13711975	0.151209466	0.123030034
446	0.13791345	0.1520504	0.1237765
447	0.1386755	0.152863656	0.124487344
448	0.1394008	0.153644665	0.125156935
449	0.14013035	0.154417539	0.125843161
450	0.1407686	0.155099266	0.126437934
451	0.1413631	0.155737042	0.126989158
452	0.14201685	0.15643244	0.12760126
453	0.1426001	0.157055427	0.128144773
454	0.1431636	0.157658216	0.128668984
455	0.1437391	0.158273872	0.129204328
456	0.1442748	0.158850889	0.129698711
457	0.144803	0.159415914	0.130190086
458	0.1453227	0.159965606	0.130679794
459	0.14578425	0.160460068	0.131108432
460	0.1462362	0.160947898	0.131524502
461	0.1466722	0.161420599	0.131923801
462	0.1470528	0.161831906	0.132273694
463	0.14746135	0.162275708	0.132646992
464	0.1478529	0.162698166	0.133007634
465	0.14817705	0.163038847	0.133315253
466	0.14856235	0.163451778	0.133672922
467	0.1489415	0.163866455	0.134016545
468	0.1492982	0.164266767	0.134329633
469	0.149762	0.164761849	0.134762151
470	0.15013695	0.165169692	0.135104208
471	0.15045885	0.165526384	0.135391316
472	0.15087415	0.165980567	0.135767733
473	0.1513483	0.1664937	0.1362029
474	0.15183185	0.167016601	0.136647099
475	0.15228125	0.167505927	0.137056573
476	0.15271735	0.167984141	0.137450559
477	0.1531787	0.168484839	0.137872561
478	0.15367915	0.169021288	0.138337012
479	0.15414955	0.169540969	0.138758131
480	0.15464805	0.170077132	0.139218968
481	0.1551731	0.170630601	0.139715599
482	0.15572785	0.171217221	0.140238479
483	0.15626755	0.171787506	0.140747594
484	0.15682755	0.172381145	0.141273955
485	0.15745135	0.173048014	0.141854686
486	0.1580893	0.173735347	0.142443253
487	0.1587379	0.174440593	0.143035207
488	0.159396	0.175163741	0.143628259
489	0.16011105	0.17592547	0.14429663
490	0.16075205	0.176613705	0.144890395
491	0.161339	0.177246827	0.145431173
492	0.1620726	0.178018071	0.146127129
493	0.1627859	0.178776878	0.146794922
494	0.16348715	0.1795252	0.1474491
495	0.1641827	0.180261081	0.148104319
496	0.16492695	0.181045586	0.148808314
497	0.16569305	0.181853972	0.149532128
498	0.1664837	0.182690845	0.150276555
499	0.1673298	0.183593197	0.151066403
500	0.1681661	0.184486388	0.151845812
501	0.16899675	0.185374396	0.152619104
502	0.1698981	0.186335443	0.153460757
503	0.17076975	0.187268018	0.154271482
504	0.17162205	0.188180408	0.155063692
505	0.1724755	0.189089402	0.155861598
506	0.17331685	0.189984039	0.156649661
507	0.1741523	0.190870139	0.157434461
508	0.17499	0.191755742	0.158224258
509	0.17582645	0.192640301	0.159012599
510	0.17667115	0.19353447	0.15980783
511	0.17752305	0.194437436	0.160608664
512	0.1783257	0.195285182	0.161366218
513	0.17920135	0.196207729	0.162194971
514	0.18009725	0.197151698	0.163042802
515	0.1808967	0.197999026	0.163794374
516	0.18175235	0.198911906	0.164592794
517	0.1825998	0.199817946	0.165381654
518	0.18339055	0.200664153	0.166116947
519	0.1843155	0.201669277	0.166961723
520	0.18524885	0.202674114	0.167823586
521	0.18616425	0.203648089	0.168680411
522	0.18697185	0.204495896	0.169447804
523	0.187785	0.205353431	0.170216569
524	0.1886021	0.206216878	0.170987322
525	0.1894069	0.207066091	0.171747709
526	0.1902674	0.207977134	0.172557666
527	0.19114565	0.208912916	0.173378384
528	0.19203395	0.209867949	0.174199951
529	0.1928437	0.210736472	0.174950928
530	0.19365225	0.211593447	0.175711053
531	0.1944665	0.212446093	0.176486907
532	0.19525105	0.213278946	0.177223154
533	0.19602205	0.214104377	0.177939723
534	0.19679215	0.214932547	0.178651753
535	0.19759125	0.215785664	0.179396836
536	0.19838375	0.216625632	0.180141868
537	0.1991571	0.217444605	0.180869595
538	0.1998993	0.21823368	0.18156492
539	0.20064365	0.21902616	0.18226114
540	0.20137155	0.219806751	0.182936349
541	0.2020765	0.220569593	0.183583407
542	0.2028526	0.221411485	0.184293715
543	0.2035712	0.222190985	0.184951415
544	0.20424895	0.222923248	0.185574652
545	0.2049452	0.223658347	0.186232053
546	0.2056151	0.224369935	0.186860265
547	0.2062667	0.225066121	0.187467279
548	0.2069013	0.225749738	0.188052862
549	0.20752845	0.226422719	0.188634181
550	0.208141	0.227081635	0.189200365
551	0.20873545	0.227723817	0.189747083
552	0.20929355	0.228320254	0.190266846
553	0.2098803	0.228948991	0.190811609
554	0.2104804	0.229591939	0.191368861
555	0.21101935	0.230162079	0.191876621
556	0.2115228	0.230696505	0.192349095
557	0.21202085	0.231230371	0.192811329
558	0.2125394	0.231797526	0.193281274
559	0.21304485	0.232352382	0.193737318
560	0.2135322	0.232887413	0.194176987
561	0.213995	0.233394879	0.194595121
562	0.2144491	0.233880661	0.195017539
563	0.21487845	0.23434096	0.19541594
564	0.21528545	0.234779206	0.195791694
565	0.21567	0.235199726	0.196140274
566	0.21608055	0.235643535	0.196517565
567	0.2164876	0.236084979	0.196890221
568	0.21684725	0.236485305	0.197209195
569	0.21721435	0.236882472	0.197546228
570	0.2175636	0.237265487	0.197861713
571	0.2178801	0.237624983	0.198135217
572	0.2182282	0.23801138	0.19844502
573	0.21855365	0.238365819	0.198741481
574	0.2188559	0.238689547	0.199022253
575	0.2191381	0.238992302	0.199283898
576	0.2193753	0.2392507	0.1994999
577	0.2196004	0.239500189	0.199700611
578	0.21985515	0.239789545	0.199920755
579	0.22006785	0.240031611	0.200104089
580	0.22026415	0.24025465	0.20027365
581	0.2204498	0.2404643	0.2004353
582	0.22061435	0.240633824	0.200594876
583	0.2207584	0.240781971	0.200734829
584	0.2208836	0.240911301	0.200855899
585	0.22100195	0.241038449	0.200965451
586	0.22109225	0.241132131	0.201052369
587	0.22116685	0.241209056	0.201124644
588	0.2212381	0.241289966	0.201186234
589	0.22132985	0.241414077	0.201245623
590	0.2214165	0.241540738	0.201292262
591	0.22148145	0.241648198	0.201314702
592	0.2215086	0.241671697	0.201345503
593	0.2215572	0.241720976	0.201393424
594	0.22162845	0.241801118	0.201455782
595	0.22167915	0.241865356	0.201492944
596	0.2216915	0.241895892	0.201487108
597	0.2216883	0.241910562	0.201466038
598	0.22171355	0.241941259	0.201485841
599	0.2217178	0.241961071	0.201474529
600	0.22172355	0.241988411	0.201458689
601	0.2217453	0.242037651	0.201452949
602	0.221744	0.24207501	0.20141299
603	0.22173785	0.242102153	0.201373547
604	0.2217293	0.242118691	0.201339909
605	0.2217301	0.242128888	0.201331312
606	0.2217217	0.242131585	0.201311815
607	0.22170825	0.242129989	0.201286511
608	0.2216999	0.242131674	0.201268126
609	0.22169285	0.242137076	0.201248624
610	0.22168995	0.242142636	0.201237264
611	0.2216946	0.242144912	0.201244288
612	0.2216854	0.242130385	0.201240415
613	0.2216443	0.242078021	0.201210579
614	0.2215702	0.241986526	0.201153874
615	0.22162215	0.242028096	0.201216204
616	0.2216059	0.242014608	0.201197192
617	0.2215644	0.241981847	0.201146953
618	0.2216317	0.242044552	0.201218848
619	0.22161445	0.24200618	0.20122272
620	0.22159075	0.241959419	0.201222081
621	0.22162095	0.241975034	0.201266866
622	0.2215806	0.241923067	0.201238133
623	0.22153515	0.241872081	0.201198219
624	0.2214973	0.241836318	0.201158282
625	0.22149165	0.241833745	0.201149555
626	0.2215014	0.241838542	0.201164258
627	0.22151315	0.241841524	0.201184776
628	0.22147215	0.241803926	0.201140374
629	0.2214449	0.241784494	0.201105306
630	0.2214197	0.241768461	0.201070939
631	0.2213859	0.241742258	0.201029542
632	0.2213671	0.241730648	0.201003552
633	0.2213495	0.241714422	0.200984578
634	0.2213306	0.241689973	0.200971227
635	0.22136755	0.241736161	0.200998939
636	0.2213893	0.241767369	0.201011231
637	0.2213967	0.241783594	0.201009806
638	0.22139005	0.241780435	0.200999665
639	0.2213891	0.241785084	0.200993116
640	0.2213917	0.241797084	0.200986316
641	0.221398	0.241820028	0.200975972
642	0.2214069	0.241846696	0.200967104
643	0.2214121	0.241863522	0.200960678
644	0.2214112	0.241864897	0.200957503
645	0.2214041	0.241889172	0.200919028
646	0.22139045	0.241900757	0.200880143
647	0.2213742	0.241906561	0.200841839
648	0.22138055	0.24194566	0.20081544
649	0.22136655	0.241969794	0.200763306
650	0.22134685	0.241984946	0.200708754
651	0.2213384	0.241994612	0.200682188
652	0.22125455	0.24192107	0.20058803
653	0.22118495	0.241849438	0.200520462
654	0.221162	0.241807299	0.200516701
655	0.2211658	0.241846344	0.200485256
656	0.2210989	0.241846152	0.200351648
657	0.22098485	0.241813289	0.200156411
658	0.2209865	0.241812381	0.200160619
659	0.22100975	0.241828347	0.200191153
660	0.221035	0.241847372	0.200222628
661	0.22103425	0.241850779	0.200217721
662	0.22101305	0.241835506	0.200190594
663	0.2210036	0.241835498	0.200171702
664	0.22102315	0.241870009	0.200176291
665	0.2210133	0.241867398	0.200159202
666	0.22100965	0.241876077	0.200143223
667	0.2210133	0.24189673	0.20012987
668	0.22101255	0.241911823	0.200113277
669	0.2210028	0.241909682	0.200095918
670	0.2209847	0.241898211	0.200071189
671	0.22095505	0.241887829	0.200022271
672	0.22094275	0.241890735	0.199994765
673	0.22093245	0.241895607	0.199969293
674	0.2209176	0.241897449	0.199937751
675	0.2209604	0.241952425	0.199968375
676	0.2209613	0.241966988	0.199955612
677	0.2209157	0.241936375	0.199895025
678	0.2209078	0.241944097	0.199871503
679	0.22089545	0.241943957	0.199846943
680	0.22088225	0.241942065	0.199822435
681	0.2208761	0.241950837	0.199801363
682	0.2208916	0.241972774	0.199810426
683	0.2209165	0.241993187	0.199839813
684	0.2209479	0.242003753	0.199892047
685	0.22099795	0.242014583	0.199981317
686	0.2210546	0.24208799	0.20002121
687	0.22111075	0.242231765	0.199989735
688	0.2210543	0.242227696	0.199880904
689	0.22107215	0.242264066	0.199880234
690	0.2211278	0.242316178	0.199939422
691	0.2211529	0.242331222	0.199974578
692	0.2211737	0.2423479	0.1999995
693	0.22120215	0.242380183	0.200024117
694	0.2212498	0.242444118	0.200055482
695	0.22127145	0.242467862	0.200075038
696	0.2213075	0.242494784	0.200120216
697	0.22136465	0.242532371	0.200196929
698	0.22143005	0.242595106	0.200264994
699	0.22148645	0.242654566	0.200318334
700	0.22153505	0.24271104	0.20035906
701	0.2215738	0.242762938	0.200384662
702	0.2216043	0.24280162	0.20040698
703	0.22165405	0.242855727	0.200452373
704	0.22175575	0.2429573	0.2005542
705	0.2218684	0.243072994	0.200663806
706	0.22196785	0.243175334	0.200760366
707	0.222048	0.243257312	0.200838688
708	0.22212635	0.243343219	0.200909481
709	0.22220555	0.243428152	0.200982948
710	0.2222847	0.243511371	0.201058029
711	0.2223611	0.243589958	0.201132242
712	0.22249885	0.243730502	0.201267198
713	0.22264795	0.24387792	0.20141798
714	0.22276465	0.243980954	0.201548346
715	0.22291645	0.244098054	0.201734846
716	0.2230609	0.244229399	0.201892401
717	0.22318	0.244377013	0.201982987
718	0.22332495	0.244597656	0.202052244
719	0.2234594	0.244807453	0.202111347
720	0.2235712	0.244970466	0.202171934
721	0.2236513	0.24498468	0.20231792
722	0.2238262	0.245126843	0.202525557
723	0.2240233	0.245324807	0.202721793
724	0.2241424	0.245503288	0.202781512
725	0.22429015	0.245663836	0.202916464
726	0.2244624	0.245840556	0.203084244
727	0.22466535	0.246048926	0.203281774
728	0.22480525	0.246205142	0.203405358
729	0.224946	0.246367394	0.203524606
730	0.2250883	0.246535221	0.203641379
731	0.2252434	0.246716893	0.203769907
732	0.22537755	0.246854612	0.203900488
733	0.22551985	0.2469914	0.2040483
734	0.22571855	0.247186436	0.204250664
735	0.2259154	0.247403086	0.204427714
736	0.2261054	0.247612611	0.204598189
737	0.2262852	0.247802876	0.204767524
738	0.2264981	0.248031344	0.204964856
739	0.2266749	0.248220565	0.205129235
740	0.22681995	0.2483774	0.2052625
741	0.2269994	0.248593011	0.205405789
742	0.22721075	0.248822605	0.205598895
743	0.227431	0.249053304	0.205808696
744	0.2276305	0.249269535	0.205991465
745	0.2278377	0.249497943	0.206177457
746	0.228066	0.249747558	0.206384442
747	0.2283279	0.250029425	0.206626375
748	0.228509	0.250231879	0.206786121
749	0.2287091	0.250453682	0.206964518
750	0.22893535	0.250701216	0.207169484
751	0.2292019	0.250984709	0.207419091
752	0.22942615	0.251228128	0.207624172
753	0.22962935	0.251452872	0.207805828
754	0.22984435	0.251694466	0.207994234
755	0.23011845	0.251992442	0.208244458
756	0.23037495	0.252248808	0.208501092
757	0.23057775	0.252404268	0.208751232
758	0.2305806	0.252198006	0.208963194
759	0.2307705	0.252342214	0.209198786
760	0.2313276	0.253263553	0.209391647
761	0.23150005	0.253511504	0.209488596
762	0.23179585	0.25385829	0.20973341
763	0.23210095	0.254209404	0.209992496
764	0.23219015	0.254355157	0.210025143
765	0.23233585	0.25451088	0.21016082
766	0.23252245	0.254691465	0.210353435
767	0.2327778	0.254932465	0.210623135
768	0.2329554	0.255116761	0.210794039
769	0.2331523	0.255327294	0.210977306
770	0.23338205	0.25557569	0.21118841
771	0.23360935	0.255815404	0.211403296
772	0.23382315	0.256048689	0.211597611
773	0.23403035	0.256278729	0.211781971
774	0.23424305	0.256509754	0.211976346
775	0.2344787	0.256765389	0.212192011
776	0.23469325	0.257000307	0.212386193
777	0.23484775	0.257175561	0.212519939
778	0.23508285	0.257430269	0.212735431
779	0.2352858	0.25764997	0.21292163
780	0.23543575	0.25781386	0.21305764
781	0.2356409	0.258038675	0.213243125
782	0.23585655	0.258273545	0.213439555
783	0.2360725	0.258507925	0.213637075
784	0.23624505	0.25869463	0.21379547
785	0.23646905	0.258937205	0.214000895
786	0.23670575	0.259195866	0.214215634
787	0.2369233	0.259439872	0.214406728
788	0.2370839	0.259618688	0.214549112
789	0.2372247	0.259773718	0.214675682
790	0.23734985	0.259909568	0.214790132
791	0.2375094	0.260086591	0.214932209
792	0.2376738	0.260266434	0.215081166
793	0.2378442	0.260452046	0.215236354
794	0.23803425	0.26066566	0.21540284
795	0.23823325	0.260883843	0.215582657
796	0.2383999	0.261067943	0.215731857
797	0.2384718	0.261157115	0.215786485
798	0.23859945	0.261285631	0.215913269
799	0.23873835	0.261432745	0.216043955
800	0.23887705	0.26159345	0.21616065
801	0.2390112	0.261735416	0.216286984
802	0.23907715	0.261811304	0.216342996
803	0.23910575	0.261851561	0.216359939
804	0.2392616	0.262017116	0.216506084
805	0.2393306	0.262098686	0.216562514
806	0.2393736	0.26215448	0.21659272
807	0.23945495	0.262245774	0.216664126
808	0.2395434	0.262344438	0.216742362
809	0.2396292	0.262442174	0.216816226
810	0.23970795	0.262534289	0.216881611
811	0.23976645	0.262599407	0.216933493
812	0.2398531	0.262684479	0.217021721
813	0.239955	0.262779973	0.217130027
814	0.23993415	0.2627765	0.2170918
815	0.2399155	0.262766197	0.217064803
816	0.2399165	0.262771483	0.217061517
817	0.23997635	0.262836921	0.217115779
818	0.2399974	0.262862556	0.217132244
819	0.24001545	0.262896622	0.217134278
820	0.24004335	0.262958644	0.217128056
821	0.24007345	0.262971003	0.217175897
822	0.2401109	0.2630069	0.2172149
823	0.24014605	0.263060472	0.217231628
824	0.2401233	0.263063555	0.217183045
825	0.2401168	0.263065067	0.217168533
826	0.2401132	0.263059727	0.217166673
827	0.24009195	0.263031643	0.217152257
828	0.2400853	0.263039871	0.217130729
829	0.2400861	0.263061812	0.217110388
830	0.24009325	0.263090707	0.217095793
831	0.24008115	0.26308139	0.21708091
832	0.24010285	0.263110947	0.217094753
833	0.24015535	0.26317732	0.21713338
834	0.2401541	0.263181569	0.217126631
835	0.24012475	0.263166834	0.217082666
836	0.2400936	0.263150034	0.217037166
837	0.2401151	0.263165521	0.217064679
838	0.240013	0.263075902	0.216950098
839	0.23992055	0.26299117	0.21684993
840	0.23991025	0.262970111	0.216850389
841	0.2398455	0.262905251	0.216785749
842	0.2397433	0.26280406	0.21668254
843	0.23961015	0.262671905	0.216548395
844	0.2395594	0.26262596	0.21649284
845	0.2394974	0.262571734	0.216423066
846	0.239419	0.262504096	0.216333904
847	0.2392991	0.262399206	0.216198994
848	0.23928915	0.262377142	0.216201158
849	0.2392652	0.262336165	0.216194235
850	0.23913785	0.262200714	0.216074986
851	0.239018	0.262110597	0.215925403
852	0.2389149	0.262012194	0.215817606
853	0.2388294	0.261896964	0.215761836
854	0.2387684	0.261820783	0.215716017
855	0.2387008	0.261777257	0.215624343
856	0.2386472	0.261763339	0.215531061
857	0.23866865	0.26178534	0.21555196
858	0.238595	0.261716833	0.215473167
859	0.2384889	0.261617738	0.215360062
860	0.23838705	0.261522831	0.215251269
861	0.23842235	0.261574437	0.215270263
862	0.2384047	0.261579544	0.215229856
863	0.2382971	0.261500973	0.215093227
864	0.23822915	0.261416384	0.215041916
865	0.23818565	0.261338649	0.215032651
866	0.2381503	0.261270908	0.215029692
867	0.2380644	0.261233024	0.214895776
868	0.23798315	0.261172861	0.214793439
869	0.2379239	0.261128554	0.214719246
870	0.2379118	0.261141016	0.214682584
871	0.2379019	0.26113349	0.21467031
872	0.2378829	0.261119054	0.214646746
