Wavelength	Mean	Std+	Std-
350	0.07923515	0.083155063	0.075315237
351	0.079373025	0.083360673	0.075385377
352	0.079607875	0.08361603	0.07559972
353	0.079757975	0.083798076	0.075717874
354	0.079823025	0.083879179	0.075766871
355	0.0798301	0.08388652	0.07577368
356	0.080122525	0.084180563	0.076064487
357	0.080232	0.084272414	0.076191586
358	0.080296275	0.08431506	0.07627749
359	0.08059175	0.084615092	0.076568408
360	0.080665825	0.084705208	0.076626442
361	0.08076085	0.084817773	0.076703927
362	0.081025275	0.085086937	0.076963613
363	0.0812947	0.085381087	0.077208313
364	0.081473875	0.085572009	0.077375741
365	0.081560625	0.08565356	0.07746769
366	0.081798975	0.085854357	0.077743593
367	0.082034725	0.086066003	0.078003447
368	0.082270325	0.086294258	0.078246392
369	0.0825058	0.086559134	0.078452466
370	0.082706675	0.086765923	0.078647427
371	0.083016275	0.087090146	0.078942404
372	0.083579975	0.087703868	0.079456082
373	0.083934775	0.088094279	0.079775271
374	0.08431175	0.088496259	0.080127241
375	0.084745275	0.088945464	0.080545086
376	0.0850637	0.089334144	0.080793256
377	0.085489	0.089783814	0.081194186
378	0.085965675	0.090260892	0.081670458
379	0.08628505	0.090614881	0.081955219
380	0.086676425	0.091051213	0.082301637
381	0.0870761	0.091497364	0.082654836
382	0.087432025	0.091891333	0.082972717
383	0.08795605	0.092385586	0.083526514
384	0.08855575	0.092992207	0.084119293
385	0.08921805	0.093714628	0.084721472
386	0.089710775	0.094247199	0.085174351
387	0.0901004	0.09470883	0.08549197
388	0.09044815	0.095141351	0.085754949
389	0.09100255	0.095709918	0.086295182
390	0.09134815	0.096099436	0.086596864
391	0.09170865	0.096502531	0.086914769
392	0.092318425	0.097125051	0.087511799
393	0.092865775	0.097678748	0.088052802
394	0.0933624	0.098203209	0.088521591
395	0.093797525	0.098692122	0.088902928
396	0.0942154	0.099137626	0.089293174
397	0.09465905	0.099618311	0.089699789
398	0.095114925	0.100117182	0.090112668
399	0.09558205	0.100628385	0.090535715
400	0.0959712	0.101035558	0.090906842
401	0.09631905	0.101398537	0.091239563
402	0.09667235	0.101786023	0.091558677
403	0.09700425	0.102143915	0.091864585
404	0.097339875	0.102502037	0.092177713
405	0.097694975	0.102877976	0.092511974
406	0.098060075	0.103261016	0.092859134
407	0.0984698	0.103694511	0.093245089
408	0.098904325	0.104158093	0.093650557
409	0.099267275	0.10455554	0.09397901
410	0.0996159	0.10494011	0.09429169
411	0.0999595	0.105316121	0.094602879
412	0.100319225	0.105697507	0.094940943
413	0.1006965	0.106092516	0.095300484
414	0.1010726	0.106492185	0.095653015
415	0.101448475	0.106902232	0.095994718
416	0.101862	0.107324358	0.096399642
417	0.10222665	0.107717629	0.096735671
418	0.102553775	0.108089034	0.097018516
419	0.102945775	0.108501144	0.097390406
420	0.103343575	0.108923068	0.097764082
421	0.103741875	0.109350745	0.098133005
422	0.10413695	0.109785268	0.098488632
423	0.10456725	0.110245428	0.098889072
424	0.10498245	0.110688211	0.099276689
425	0.105363025	0.111096893	0.099629157
426	0.1057724	0.111546147	0.099998653
427	0.106197575	0.112008717	0.100386433
428	0.106637675	0.112483688	0.100791662
429	0.107086625	0.112976996	0.101196254
430	0.107583	0.113507227	0.101658773
431	0.108087	0.114042094	0.102131906
432	0.10853625	0.114533463	0.102539037
433	0.109010725	0.115054357	0.102967093
434	0.10946665	0.115560064	0.103373236
435	0.10988415	0.116031764	0.103736536
436	0.110302575	0.116481401	0.104123749
437	0.110755475	0.116970036	0.104540914
438	0.11124015	0.117495977	0.104984323
439	0.111643525	0.117930608	0.105356442
440	0.1120732	0.118387832	0.105758568
441	0.11250775	0.11885139	0.10616411
442	0.11290745	0.119297392	0.106517508
443	0.113308875	0.11972729	0.10689046
444	0.1137027	0.12015037	0.10725503
445	0.11408195	0.120571842	0.107592058
446	0.114463425	0.120982313	0.107944537
447	0.114822775	0.12137367	0.10827188
448	0.115159225	0.121746981	0.108571469
449	0.11549685	0.122117335	0.108876365
450	0.1158076	0.122451837	0.109163363
451	0.11611465	0.122775999	0.109453301
452	0.1164782	0.12315285	0.10980355
453	0.116792725	0.123481986	0.110103464
454	0.117078	0.123786208	0.110369792
455	0.1173368	0.124072715	0.110600885
456	0.11758165	0.124334919	0.110828381
457	0.117817725	0.124585803	0.111049647
458	0.118043125	0.124824818	0.111261432
459	0.1182877	0.125092739	0.111482661
460	0.118496775	0.125313987	0.111679563
461	0.118682175	0.125504244	0.111860106
462	0.118870575	0.125700677	0.112040473
463	0.119035075	0.125870202	0.112199948
464	0.119192575	0.126034362	0.112350788
465	0.119354025	0.126209032	0.112499018
466	0.1195349	0.126398535	0.112671265
467	0.11970015	0.126570358	0.112829942
468	0.11984015	0.126714778	0.112965522
469	0.1199895	0.126883039	0.113095961
470	0.12018185	0.127086989	0.113276711
471	0.1203933	0.127305797	0.113480803
472	0.1205315	0.127460634	0.113602366
473	0.120698675	0.127630256	0.113767094
474	0.12087525	0.127807908	0.113942592
475	0.121046575	0.127991296	0.114101854
476	0.12121135	0.128174268	0.114248432
477	0.121403275	0.128382737	0.114423813
478	0.121634225	0.128626478	0.114641972
479	0.1218502	0.12885758	0.11484282
480	0.122084125	0.129112945	0.115055305
481	0.122326025	0.129379979	0.115272071
482	0.122517925	0.129585033	0.115450817
483	0.122744425	0.129825654	0.115663196
484	0.122994475	0.130092768	0.115896182
485	0.123261125	0.130383633	0.116138617
486	0.12355005	0.130694085	0.116406015
487	0.123850425	0.131012669	0.116688181
488	0.1241596	0.131335717	0.116983483
489	0.1244433	0.131655822	0.117230778
490	0.1247232	0.131971572	0.117474828
491	0.12500445	0.132286859	0.117722041
492	0.1253519	0.132665383	0.118038417
493	0.125699425	0.133034568	0.118364282
494	0.126044475	0.133400313	0.118688637
495	0.12638245	0.133769171	0.118995729
496	0.1267122	0.134135961	0.119288439
497	0.127043275	0.134503201	0.119583349
498	0.1273822	0.134875021	0.119889379
499	0.127769125	0.135294655	0.120243595
500	0.12815255	0.135712392	0.120592708
501	0.128528375	0.136124391	0.120932359
502	0.128888075	0.136526844	0.121249306
503	0.12925515	0.136931814	0.121578486
504	0.12962895	0.137341018	0.121916882
505	0.130021475	0.137769203	0.122273747
506	0.13040395	0.138186397	0.122621503
507	0.130795725	0.138613755	0.122977695
508	0.1312111	0.139067488	0.123354712
509	0.131607625	0.139494839	0.123720411
510	0.132001125	0.139923993	0.124078257
511	0.1323932	0.140357316	0.124429084
512	0.13277155	0.140776689	0.124766411
513	0.13317675	0.14121669	0.12513681
514	0.133597675	0.141670231	0.125525119
515	0.1340128	0.142121653	0.125903947
516	0.134440375	0.142588704	0.126292046
517	0.13487595	0.143066958	0.126684942
518	0.13531565	0.143553946	0.127077354
519	0.13571505	0.143995213	0.127434887
520	0.13612995	0.144451199	0.127808701
521	0.136560675	0.144922069	0.128199281
522	0.136989675	0.14538331	0.12859604
523	0.137421825	0.145851308	0.128992342
524	0.1378571	0.14632378	0.12939042
525	0.13828955	0.146790996	0.129788104
526	0.138725025	0.147270594	0.130179456
527	0.139164675	0.147753464	0.130575886
528	0.139616	0.148240626	0.130991374
529	0.140050125	0.148719047	0.131381203
530	0.140489925	0.149196996	0.131782854
531	0.1409383	0.149675944	0.132200656
532	0.141408625	0.150192409	0.132624841
533	0.141875775	0.150696018	0.133055532
534	0.142340975	0.15119434	0.13348761
535	0.14279985	0.151698464	0.133901236
536	0.143260175	0.152194865	0.134325485
537	0.1437215	0.152689476	0.134753524
538	0.14418765	0.153190523	0.135184777
539	0.1446562	0.153697699	0.135614701
540	0.145116125	0.154200058	0.136032192
541	0.14556295	0.154692835	0.136433065
542	0.146040475	0.155207623	0.136873327
543	0.1465183	0.155718137	0.137318463
544	0.146994575	0.156225138	0.137764012
545	0.147472975	0.156742464	0.138203486
546	0.14797005	0.157270883	0.138669217
547	0.148463325	0.157796561	0.139130089
548	0.148931875	0.158307593	0.139556157
549	0.149424625	0.158827355	0.140021895
550	0.14991615	0.159351546	0.140480754
551	0.150400725	0.159878806	0.140922644
552	0.15088315	0.16039376	0.14137254
553	0.151378575	0.160920517	0.141836633
554	0.15188195	0.161454828	0.142309072
555	0.15236895	0.161975246	0.142762654
556	0.152852325	0.162491147	0.143213503
557	0.153339725	0.163010087	0.143669363
558	0.153837325	0.163537714	0.144136936
559	0.154339075	0.164070155	0.144607995
560	0.154826975	0.164589629	0.145064321
561	0.1552914	0.165086425	0.145496375
562	0.155782475	0.165604492	0.145960458
563	0.156271225	0.166121759	0.146420691
564	0.156755975	0.166636161	0.146875789
565	0.157220625	0.167127744	0.147313506
566	0.15769735	0.16763494	0.14775976
567	0.15817815	0.168144941	0.148211359
568	0.1586511	0.168638669	0.148663531
569	0.159101625	0.169117066	0.149086184
570	0.159555175	0.169596599	0.149513751
571	0.16001955	0.170082044	0.149957056
572	0.160484675	0.170566051	0.150403299
573	0.160935225	0.171040768	0.150829682
574	0.161374875	0.171508446	0.151241304
575	0.161829575	0.171980669	0.151678481
576	0.162274075	0.17245075	0.1520974
577	0.162716875	0.172920256	0.152513494
578	0.16316305	0.173384077	0.152942023
579	0.163595825	0.173832167	0.153359483
580	0.16402575	0.174279168	0.153772332
581	0.16445445	0.174728773	0.154180127
582	0.16485935	0.17514835	0.15457035
583	0.1652579	0.17556426	0.15495154
584	0.165650725	0.175977226	0.155324224
585	0.16601305	0.176355122	0.155670978
586	0.166350975	0.176710999	0.155990951
587	0.16667325	0.177052114	0.156294386
588	0.166976275	0.177372178	0.156580372
589	0.1672796	0.177691956	0.156867244
590	0.167601375	0.178029649	0.157173101
591	0.16795115	0.17839426	0.15750804
592	0.168291075	0.178743013	0.157839137
593	0.168621425	0.17908543	0.15815742
594	0.1689467	0.1794257	0.1584677
595	0.169283725	0.179767839	0.158799611
596	0.16962505	0.18011597	0.15913413
597	0.169959575	0.180457829	0.159461321
598	0.170252925	0.18075503	0.15975082
599	0.17055815	0.181067705	0.160048595
600	0.170853525	0.18137374	0.16033331
601	0.17111905	0.181654513	0.160583587
602	0.17141075	0.181961015	0.160860485
603	0.17168785	0.182248212	0.161127488
604	0.171946075	0.182511878	0.161380272
605	0.172215425	0.182791986	0.161638864
606	0.172456825	0.183047431	0.161866219
607	0.1726845	0.183290568	0.162078432
608	0.1729207	0.18353969	0.16230171
609	0.1731514	0.183784037	0.162518763
610	0.1733843	0.184027426	0.162741174
611	0.173621625	0.184268018	0.162975232
612	0.173834975	0.184497522	0.163172428
613	0.1740612	0.184733665	0.163388735
614	0.1743059	0.184978806	0.163632994
615	0.174504175	0.185195709	0.163812641
616	0.174730125	0.185430276	0.164029974
617	0.17497375	0.18567576	0.16427174
618	0.175209875	0.18591394	0.16450581
619	0.17545735	0.186166977	0.164747723
620	0.175690825	0.186404399	0.164977251
621	0.1758831	0.18659402	0.16517218
622	0.176111975	0.186828593	0.165395357
623	0.17633635	0.187060211	0.165612489
624	0.176546475	0.187277987	0.165814963
625	0.176765275	0.187496849	0.166033701
626	0.177010025	0.18774956	0.16627049
627	0.17726905	0.188022211	0.166515889
628	0.177509925	0.188277037	0.166742813
629	0.177772975	0.188541936	0.167004014
630	0.1780375	0.188809437	0.167265563
631	0.178286975	0.18907597	0.16749798
632	0.178494325	0.189282942	0.167705708
633	0.178726875	0.189518008	0.167935742
634	0.1790003	0.189801041	0.168199559
635	0.1792612	0.190072395	0.168450005
636	0.17949935	0.190319718	0.168678982
637	0.179722475	0.190551788	0.168893162
638	0.179963275	0.190804806	0.169121744
639	0.18017845	0.191032874	0.169324026
640	0.1803931	0.191261769	0.169524431
641	0.18063455	0.19151992	0.16974918
642	0.18086785	0.191766226	0.169969474
643	0.1810826	0.191993462	0.170171738
644	0.18127525	0.192198841	0.170351659
645	0.181452625	0.192388776	0.170516474
646	0.1816191	0.192570588	0.170667612
647	0.1817817	0.192749631	0.170813769
648	0.18197865	0.192955728	0.171001572
649	0.182211225	0.193198597	0.171223853
650	0.18244865	0.193447301	0.171449999
651	0.182655325	0.193667025	0.171643625
652	0.18288945	0.19391152	0.17186738
653	0.183107	0.194140477	0.172073523
654	0.183293325	0.19434116	0.17224549
655	0.1834835	0.194542395	0.172424605
656	0.183701575	0.194776873	0.172626277
657	0.18393765	0.19503278	0.17284252
658	0.184187175	0.195292513	0.173081837
659	0.18445515	0.195569641	0.173340659
660	0.184717525	0.195842067	0.173592983
661	0.18493335	0.196071933	0.173794767
662	0.18517495	0.196326807	0.174023093
663	0.185418175	0.196581967	0.174254383
664	0.18565245	0.196826701	0.174478199
665	0.185890975	0.197083556	0.174698394
666	0.1861131	0.197315779	0.174910421
667	0.1863197	0.197525152	0.175114248
668	0.186526075	0.197746684	0.175305466
669	0.186743	0.197972234	0.175513766
670	0.186972475	0.198207366	0.175737584
671	0.1872238	0.198465711	0.175981889
672	0.187455725	0.19870669	0.17620476
673	0.18768645	0.198947493	0.176425407
674	0.18792515	0.199197585	0.176652715
675	0.18813145	0.19941722	0.17684568
676	0.188334425	0.199633871	0.177034979
677	0.188538875	0.199851731	0.177226019
678	0.188775375	0.200091885	0.177458865
679	0.18900335	0.200329993	0.177676707
680	0.18922325	0.200562162	0.177884338
681	0.18943105	0.200775496	0.178086604
682	0.189653125	0.201002506	0.178303744
683	0.18986765	0.201221728	0.178513572
684	0.190061875	0.201420194	0.178703556
685	0.1902007	0.201556631	0.178844769
686	0.190315375	0.201677176	0.178953574
687	0.190412025	0.201790526	0.179033524
688	0.19070375	0.202090759	0.179316741
689	0.190965075	0.202367214	0.179562936
690	0.19120655	0.20262848	0.17978462
691	0.191453225	0.202899165	0.180007285
692	0.191676875	0.203143632	0.180210118
693	0.191907675	0.203393649	0.180421701
694	0.192169125	0.203672873	0.180665377
695	0.19246535	0.203965033	0.180965667
696	0.1927475	0.204247803	0.181247197
697	0.193009	0.204518428	0.181499572
698	0.193191125	0.204711705	0.181670545
699	0.193408625	0.204935125	0.181882125
700	0.1936508	0.205180873	0.182120727
701	0.19389335	0.20543309	0.18235361
702	0.194171775	0.20571371	0.18262984
703	0.1944477	0.205991552	0.182903848
704	0.194692525	0.206243558	0.183141492
705	0.19494815	0.206509825	0.183386475
706	0.1952097	0.206777115	0.183642285
707	0.195476975	0.207043222	0.183910728
708	0.195737725	0.207305518	0.184169932
709	0.195994225	0.207569818	0.184418632
710	0.1962492	0.207835878	0.184662522
711	0.196513775	0.208103645	0.184923905
712	0.1967333	0.208331836	0.185134764
713	0.196927575	0.208538172	0.185316978
714	0.1971033	0.208728841	0.185477759
715	0.197150975	0.208824514	0.185477436
716	0.19718385	0.208912493	0.185455207
717	0.19722925	0.209013188	0.185445312
718	0.197421625	0.20920612	0.18563713
719	0.197711575	0.209478957	0.185944193
720	0.198056025	0.209798095	0.186313955
721	0.198383675	0.210119084	0.186648266
722	0.198598575	0.210352286	0.186844864
723	0.19876795	0.21054992	0.18698598
724	0.19892315	0.210728806	0.187117494
725	0.199124175	0.210934111	0.187314239
726	0.199340625	0.211151298	0.187529952
727	0.19956965	0.211381112	0.187758188
728	0.199838375	0.211655311	0.188021439
729	0.20011345	0.211927746	0.188299154
730	0.2003999	0.212205221	0.188594579
731	0.2007709	0.212573256	0.188968544
732	0.2010853	0.212876215	0.189294385
733	0.201359875	0.213140077	0.189579673
734	0.201599975	0.213381699	0.189818251
735	0.201817725	0.213606683	0.190028767
736	0.202051025	0.213845374	0.190256676
737	0.202317075	0.214111597	0.190522553
738	0.2025636	0.214357058	0.190770142
739	0.202794025	0.214588288	0.190999762
740	0.203009625	0.214807358	0.191211892
741	0.203224625	0.215033153	0.191416097
742	0.203453575	0.215267434	0.191639716
743	0.20368015	0.215498114	0.191862186
744	0.203876825	0.215704355	0.192049295
745	0.204075325	0.215910439	0.192240211
746	0.204267475	0.216109167	0.192425783
747	0.204449275	0.216296531	0.192602019
748	0.204621825	0.216475769	0.192767881
749	0.204786875	0.216648942	0.192924808
750	0.20494525	0.216816597	0.193073903
751	0.20511175	0.216992866	0.193230634
752	0.205295875	0.217185702	0.193406048
753	0.2054781	0.217375734	0.193580466
754	0.205616225	0.21752007	0.19371238
755	0.20577235	0.217688844	0.193855856
756	0.205920825	0.217842977	0.193998673
757	0.2060526	0.217963392	0.194141808
758	0.20576975	0.217647456	0.193892044
759	0.20537725	0.217237747	0.193516753
760	0.205027125	0.216910536	0.193143714
761	0.205149125	0.217035957	0.193262293
762	0.2053366	0.217240191	0.193433009
763	0.2056166	0.217547131	0.193686069
764	0.20606825	0.218034413	0.194102087
765	0.206507375	0.218497163	0.194517587
766	0.206888375	0.218892754	0.194883996
767	0.20721555	0.219226057	0.195205043
768	0.207425675	0.21943609	0.19541526
769	0.20758515	0.219601939	0.195568361
770	0.20770535	0.219736748	0.195673952
771	0.207860025	0.219911016	0.195809034
772	0.207989	0.220048373	0.195929627
773	0.2080994	0.220162503	0.196036297
774	0.208199075	0.220276672	0.196121478
775	0.208284	0.220370324	0.196197676
776	0.2083613	0.220455573	0.196267027
777	0.20843285	0.220537621	0.196328079
778	0.2085568	0.220666531	0.196447069
779	0.208669025	0.220787117	0.196550933
780	0.208758275	0.220889831	0.196626719
781	0.208875475	0.221009759	0.196741191
782	0.208949825	0.22109291	0.19680674
783	0.20899665	0.221152408	0.196840892
784	0.209055225	0.22121895	0.1968915
785	0.209095875	0.221274037	0.196917713
786	0.2091325	0.221322707	0.196942293
787	0.209174925	0.221365392	0.196984458
788	0.2092355	0.221441648	0.197029352
789	0.209306825	0.221527256	0.197086394
790	0.209388625	0.221618592	0.197158658
791	0.209481325	0.221709852	0.197252798
792	0.20955205	0.221782056	0.197322044
793	0.209600925	0.221837928	0.197363922
794	0.20961985	0.221884687	0.197355013
795	0.2096809	0.221953557	0.197408243
796	0.209756675	0.222028204	0.197485146
797	0.20982585	0.22209454	0.19755716
798	0.209846075	0.222126972	0.197565178
799	0.209875975	0.222170321	0.197581629
800	0.2099315	0.222237034	0.197625966
801	0.2099666	0.222290449	0.197642751
802	0.210034225	0.222366633	0.197701817
803	0.210124425	0.222458442	0.197790408
804	0.2101878	0.222530811	0.197844789
805	0.210225775	0.222572566	0.197878984
806	0.210263175	0.222611068	0.197915282
807	0.210331925	0.222680418	0.197983432
808	0.210333825	0.222705724	0.197961926
809	0.210311175	0.222706272	0.197916078
810	0.210272875	0.222683204	0.197862546
811	0.210243775	0.222684839	0.197802711
812	0.210199175	0.222671663	0.197726687
813	0.2101391	0.222644587	0.197633613
814	0.21007975	0.222621944	0.197537556
815	0.2100594	0.222626421	0.197492379
816	0.210077775	0.222653057	0.197502493
817	0.21015715	0.22270845	0.19760585
818	0.210218475	0.222763083	0.197673867
819	0.210312875	0.222849298	0.197776452
820	0.21046855	0.222987615	0.197949485
821	0.21045965	0.223012782	0.197906518
822	0.210428475	0.223006574	0.197850376
823	0.210406375	0.22299163	0.19782112
824	0.21058035	0.223137992	0.198022708
825	0.210666075	0.223216093	0.198116057
826	0.210697825	0.223253245	0.198142405
827	0.2106863	0.223257771	0.198114829
828	0.210729075	0.223306611	0.198151539
829	0.2107799	0.223364061	0.198195739
830	0.210820075	0.223416539	0.198223611
831	0.21086135	0.223459207	0.198263493
832	0.210938125	0.22353178	0.19834447
833	0.211045575	0.223630513	0.198460637
834	0.211099	0.223676846	0.198521154
835	0.21113765	0.223712236	0.198563064
836	0.21117275	0.22374617	0.19859933
837	0.21122425	0.223797414	0.198651086
838	0.21128085	0.223848017	0.198713683
839	0.2113417	0.223907255	0.198776145
840	0.211407925	0.223983038	0.198832812
841	0.21139285	0.223982401	0.198803299
842	0.211440575	0.224033121	0.198848029
843	0.21155825	0.224142339	0.198974161
844	0.21159345	0.224195312	0.198991588
845	0.211637575	0.224242654	0.199032496
846	0.2116763	0.22428005	0.19907255
847	0.211666225	0.224288139	0.199044311
848	0.21168545	0.224309474	0.199061426
849	0.211722075	0.224342981	0.199101169
850	0.211774	0.224392359	0.199155641
851	0.2117871	0.224429687	0.199144513
852	0.21181275	0.224459049	0.199166451
853	0.211859325	0.224482526	0.199236124
854	0.211898	0.224534275	0.199261725
855	0.2119116	0.224562151	0.199261049
856	0.211921075	0.224582743	0.199259407
857	0.211987825	0.224642895	0.199332755
858	0.21204805	0.224722403	0.199373697
859	0.212109925	0.224800689	0.199419161
860	0.212178925	0.22485699	0.19950086
