Wavelength	Mean	Std+	Std-
350	0.084383575	0.090239857	0.078527293
351	0.084839425	0.090687993	0.078990857
352	0.085373	0.091156704	0.079589296
353	0.085531725	0.091359732	0.079703718
354	0.08571995	0.091637587	0.079802313
355	0.08597105	0.092017956	0.079924144
356	0.086256325	0.092463301	0.080049349
357	0.086510225	0.092775016	0.080245434
358	0.086807025	0.093057913	0.080556137
359	0.0873454	0.093533427	0.081157373
360	0.087543375	0.093761001	0.081325749
361	0.087694225	0.093976098	0.081412352
362	0.087950475	0.094313377	0.081587573
363	0.088286075	0.094755942	0.081816208
364	0.08863745	0.095165551	0.082109349
365	0.0889845	0.095518378	0.082450622
366	0.089123525	0.095750603	0.082496447
367	0.0894648	0.096059604	0.082869996
368	0.089889275	0.096420326	0.083358224
369	0.09011485	0.096777575	0.083452125
370	0.090592875	0.097340699	0.083845051
371	0.091135175	0.097968371	0.084301979
372	0.091630075	0.098582264	0.084677886
373	0.09230385	0.099371115	0.085236585
374	0.0928232	0.099966145	0.085680255
375	0.093140225	0.100312987	0.085967463
376	0.094045075	0.10130113	0.08678902
377	0.0947453	0.102062376	0.087428224
378	0.09534585	0.102740476	0.087951224
379	0.0961368	0.103781071	0.088492529
380	0.096976975	0.104672765	0.089281185
381	0.09777495	0.105460565	0.090089335
382	0.098434725	0.106139961	0.090729489
383	0.099242375	0.107089042	0.091395708
384	0.100019125	0.10803536	0.09200289
385	0.100732575	0.108931448	0.092533702
386	0.10153565	0.10985559	0.09321571
387	0.10250925	0.110898159	0.094120341
388	0.10355505	0.111999358	0.095110742
389	0.104347275	0.112983314	0.095711236
390	0.104925525	0.113649339	0.096201711
391	0.105507275	0.114256881	0.096757669
392	0.1063238	0.115050856	0.097596744
393	0.107229725	0.116074077	0.098385373
394	0.1081627	0.117150681	0.099174719
395	0.1090862	0.118217586	0.099954814
396	0.11001995	0.119342476	0.100697424
397	0.110897175	0.120328866	0.101465484
398	0.11169635	0.121186581	0.102206119
399	0.112321625	0.121892623	0.102750627
400	0.11294605	0.122588241	0.103303859
401	0.113558725	0.123270397	0.103847053
402	0.11419935	0.123991728	0.104406972
403	0.1148119	0.124660118	0.104963682
404	0.11541525	0.125310675	0.105519825
405	0.116029275	0.125967819	0.106090731
406	0.1166301	0.126652948	0.106607252
407	0.117226875	0.127321969	0.107131781
408	0.117832925	0.127992226	0.107673624
409	0.118542825	0.128784935	0.108300715
410	0.1192015	0.12951763	0.10888537
411	0.119833125	0.130217844	0.109448406
412	0.1204747	0.130926489	0.110022911
413	0.1210822	0.13156565	0.11059875
414	0.121681925	0.132226836	0.111137014
415	0.1222924	0.132956823	0.111627977
416	0.122963675	0.133627764	0.112299586
417	0.1236471	0.134368319	0.112925881
418	0.124338575	0.13516937	0.11350778
419	0.12503355	0.135942617	0.114124483
420	0.125701325	0.136698139	0.114704511
421	0.126378975	0.137456634	0.115301316
422	0.127141925	0.138263371	0.116020479
423	0.127967725	0.139187144	0.116748306
424	0.128779	0.140098378	0.117459622
425	0.129550975	0.140952511	0.118149439
426	0.13034925	0.141832163	0.118866337
427	0.131208025	0.142784202	0.119631848
428	0.132128875	0.143811358	0.120446392
429	0.13306825	0.14486855	0.12126795
430	0.134085325	0.145990375	0.122180275
431	0.135147725	0.147160585	0.123134865
432	0.136247575	0.148407444	0.124087706
433	0.137295025	0.149603485	0.124986565
434	0.138307925	0.150730868	0.125884982
435	0.139300875	0.151778454	0.126823296
436	0.14025025	0.152859879	0.127640621
437	0.141192675	0.153911041	0.128474309
438	0.14214525	0.154943689	0.129346811
439	0.143207175	0.156085861	0.130328489
440	0.1441864	0.157175077	0.131197723
441	0.145106125	0.158212487	0.131999763
442	0.14600245	0.159186701	0.132818199
443	0.146859675	0.160124051	0.133595299
444	0.147706725	0.161063011	0.134350439
445	0.148562175	0.162032553	0.135091797
446	0.149346825	0.162878646	0.135815004
447	0.15013925	0.163739307	0.136539193
448	0.150952025	0.164634265	0.137269785
449	0.151739125	0.165505571	0.137972679
450	0.15246865	0.166308825	0.138628475
451	0.15315825	0.167065212	0.139251288
452	0.153827225	0.167799479	0.139854971
453	0.154493025	0.168534576	0.140451474
454	0.155141825	0.169250961	0.141032689
455	0.155756325	0.169926508	0.141586142
456	0.156338175	0.170575651	0.142100699
457	0.156858625	0.171173751	0.142543499
458	0.157304125	0.171706498	0.142901752
459	0.157738075	0.172167585	0.143308565
460	0.15812655	0.172591852	0.143661248
461	0.15847755	0.172981725	0.143973375
462	0.1587893	0.173317727	0.144260873
463	0.159074525	0.173639904	0.144509146
464	0.159337225	0.173940616	0.144733834
465	0.1595685	0.174201871	0.144935129
466	0.159814725	0.174485667	0.145143783
467	0.160044875	0.174742115	0.145347635
468	0.1602491	0.174956051	0.145542149
469	0.16050275	0.175255524	0.145749976
470	0.1607448	0.175534959	0.145954641
471	0.160977025	0.175797464	0.146156586
472	0.16120705	0.176053505	0.146360595
473	0.161488225	0.176375327	0.146601123
474	0.1617898	0.176717538	0.146862062
475	0.1620922	0.177045475	0.147138925
476	0.16241155	0.177419484	0.147403616
477	0.162766075	0.177826298	0.147705852
478	0.163165725	0.178268375	0.148063075
479	0.1635562	0.178693607	0.148418793
480	0.16396945	0.179151415	0.148787485
481	0.164408175	0.179642473	0.149173877
482	0.16489725	0.180183216	0.149611284
483	0.165403	0.18073568	0.15007032
484	0.165943275	0.181331862	0.150554688
485	0.166547675	0.182023223	0.151072127
486	0.167159475	0.182698718	0.151620232
487	0.1678212	0.183431908	0.152210492
488	0.168552625	0.184252838	0.152852412
489	0.169252625	0.1850471	0.15345815
490	0.16996735	0.185850196	0.154084504
491	0.170693125	0.186656938	0.154729312
492	0.17148745	0.187522307	0.155452593
493	0.17229855	0.188398974	0.156198126
494	0.17312485	0.189298231	0.156951469
495	0.17397675	0.190254589	0.157698911
496	0.174831025	0.191192524	0.158469526
497	0.1756894	0.192140444	0.159238356
498	0.176560675	0.193119562	0.160001788
499	0.1775128	0.194138921	0.160886679
500	0.178484325	0.195192189	0.161776461
501	0.179470225	0.196273964	0.162666486
502	0.1804714	0.197362263	0.163580537
503	0.1814735	0.198473926	0.164473074
504	0.182479625	0.199590564	0.165368686
505	0.18351985	0.200707762	0.166331938
506	0.184544425	0.20182433	0.16726452
507	0.1855688	0.202940723	0.168196877
508	0.1866092	0.20406699	0.16915141
509	0.18770625	0.205235477	0.170177023
510	0.188773425	0.206398108	0.171148742
511	0.189812875	0.2075546	0.17207115
512	0.1908809	0.208700291	0.173061509
513	0.191934175	0.209846753	0.174021597
514	0.192991325	0.210997608	0.174985042
515	0.1940712	0.21213739	0.17600501
516	0.195135875	0.213270611	0.177001139
517	0.196242475	0.214463591	0.178021359
518	0.197425975	0.215761862	0.179090088
519	0.198536675	0.21697326	0.18010009
520	0.199650975	0.218172627	0.181129323
521	0.200762575	0.219353742	0.182171408
522	0.201828325	0.220487985	0.183168665
523	0.202899275	0.221626337	0.184172213
524	0.2039822	0.222776848	0.185187552
525	0.205082	0.223947016	0.186216984
526	0.2061972	0.225137243	0.187257157
527	0.207304	0.22632154	0.18828646
528	0.20839765	0.227495177	0.189300123
529	0.2094737	0.228621078	0.190326322
530	0.21053965	0.229729466	0.191349834
531	0.21159535	0.230823641	0.192367059
532	0.212657775	0.231939132	0.193376418
533	0.21372895	0.233064775	0.194393125
534	0.214807325	0.234197552	0.195417098
535	0.2158779	0.235316392	0.196439408
536	0.21692665	0.236414659	0.197438641
537	0.217959025	0.237487239	0.198430811
538	0.218980625	0.238527914	0.199433336
539	0.2200208	0.239612826	0.200428774
540	0.221057525	0.240693142	0.201421908
541	0.2220813	0.24175439	0.20240821
542	0.223128025	0.242839374	0.203416676
543	0.2241459	0.243892473	0.204399327
544	0.225137875	0.244915588	0.205360162
545	0.2261284	0.245927512	0.206329288
546	0.22712655	0.246963194	0.207289906
547	0.2281152	0.24798721	0.20824319
548	0.22907605	0.248962684	0.209189416
549	0.230040625	0.249956638	0.210124612
550	0.23100435	0.250947082	0.211061618
551	0.23196555	0.251928524	0.212002576
552	0.23287505	0.252847282	0.212902818
553	0.23378905	0.253776965	0.213801135
554	0.234701925	0.25470727	0.21469658
555	0.235576525	0.255580314	0.215572736
556	0.23644045	0.256464186	0.216416714
557	0.23730135	0.257349735	0.217252965
558	0.23815715	0.258219426	0.218094874
559	0.238997675	0.259063447	0.218931903
560	0.23983195	0.259903005	0.219760895
561	0.2406582	0.260740159	0.220576241
562	0.241433375	0.261519414	0.221347336
563	0.242195425	0.262284351	0.222106499
564	0.24295025	0.263042427	0.222858073
565	0.2437107	0.263814953	0.223606447
566	0.2444262	0.264530906	0.224321494
567	0.245123175	0.265228373	0.225017977
568	0.245819675	0.265940104	0.225699246
569	0.2464951	0.266604644	0.226385556
570	0.24716265	0.267267529	0.227057771
571	0.2478223	0.267940912	0.227703688
572	0.248472125	0.268604135	0.228340115
573	0.249090025	0.269227208	0.228952842
574	0.24968225	0.269819225	0.229545275
575	0.2502901	0.270443252	0.230136948
576	0.250888525	0.271048469	0.230728581
577	0.2514781	0.27164107	0.23131513
578	0.2520442	0.272213445	0.231874955
579	0.2525987	0.272787761	0.232409639
580	0.25315265	0.273364995	0.232940305
581	0.2537089	0.273944783	0.233473017
582	0.254219675	0.274468125	0.233971225
583	0.25470985	0.274963713	0.234455987
584	0.255180675	0.275432965	0.234928385
585	0.25560435	0.275852095	0.235356605
586	0.25598595	0.276226502	0.235745398
587	0.2563455	0.27657609	0.23611491
588	0.25669665	0.276913103	0.236480197
589	0.257046175	0.277265256	0.236827094
590	0.25739845	0.277635526	0.237161374
591	0.25775065	0.278024514	0.237476786
592	0.258144625	0.278416662	0.237872588
593	0.25852165	0.278807025	0.238236275
594	0.25888295	0.279199258	0.238566642
595	0.259257925	0.279599156	0.238916694
596	0.2596151	0.279994394	0.239235806
597	0.25996215	0.28038521	0.23953909
598	0.2603069	0.280764508	0.239849292
599	0.26064145	0.28112762	0.24015528
600	0.2609552	0.281477577	0.240432823
601	0.261230175	0.281807266	0.240653084
602	0.2615169	0.282133054	0.240900746
603	0.26179745	0.282451287	0.241143613
604	0.262067425	0.282758678	0.241376172
605	0.26229125	0.283006952	0.241575548
606	0.262514675	0.283258132	0.241771218
607	0.26273675	0.283509545	0.241963955
608	0.26294525	0.283745169	0.242145331
609	0.26315275	0.283962342	0.242343158
610	0.2633652	0.284175163	0.242555237
611	0.26358565	0.284388899	0.242782401
612	0.263778325	0.284609818	0.242946832
613	0.26396835	0.284821706	0.243114994
614	0.26416095	0.285023696	0.243298204
615	0.26440665	0.285303001	0.243510299
616	0.264645175	0.285573446	0.243716904
617	0.264871225	0.285826954	0.243915496
618	0.26506025	0.286026043	0.244094457
619	0.265228675	0.286207417	0.244249933
620	0.265377075	0.286365326	0.244388824
621	0.2654965	0.286484907	0.244508093
622	0.265691725	0.286689728	0.244693722
623	0.26588175	0.286893867	0.244869633
624	0.2660486	0.287078445	0.245018755
625	0.2661794	0.287220966	0.245137834
626	0.26632445	0.287373801	0.245275099
627	0.2664885	0.28754651	0.24543049
628	0.2667058	0.287795086	0.245616514
629	0.266902975	0.288008657	0.245797293
630	0.2670967	0.288213836	0.245979564
631	0.267301625	0.288431518	0.246171732
632	0.267413225	0.28856529	0.24626116
633	0.26754445	0.288718826	0.246370074
634	0.267719775	0.288914846	0.246524704
635	0.267883425	0.289085666	0.246681184
636	0.268040175	0.289253196	0.246827154
637	0.2681937	0.289422259	0.246965141
638	0.26835835	0.289614035	0.247102665
639	0.26852065	0.289787877	0.247253423
640	0.268683775	0.289964834	0.247402716
641	0.268852125	0.290170887	0.247533363
642	0.269010225	0.290347679	0.247672771
643	0.269151675	0.290506551	0.247796799
644	0.269274175	0.29065022	0.24789813
645	0.269346425	0.290724573	0.247968277
646	0.269447975	0.29084113	0.24805482
647	0.2695765	0.290995881	0.248157119
648	0.26972775	0.29117679	0.24827871
649	0.269903425	0.291398646	0.248408204
650	0.2700848	0.291627881	0.248541719
651	0.27025205	0.291825796	0.248678304
652	0.270403125	0.292006528	0.248799722
653	0.27055235	0.292175741	0.248928959
654	0.27070725	0.292336237	0.249078263
655	0.27084715	0.292536228	0.249158072
656	0.2709777	0.292729953	0.249225447
657	0.271107875	0.292918166	0.249297584
658	0.27134355	0.293178631	0.249508469
659	0.27154385	0.293409887	0.249677813
660	0.27172605	0.293621117	0.249830983
661	0.271902825	0.293811345	0.249994305
662	0.2720531	0.293988579	0.250117621
663	0.2722015	0.294165782	0.250237218
664	0.27235695	0.294347571	0.250366329
665	0.272504625	0.29451169	0.25049756
666	0.27265785	0.294687854	0.250627846
667	0.272816625	0.294875165	0.250758085
668	0.2729662	0.295038914	0.250893486
669	0.273105325	0.295193835	0.251016815
670	0.2732365	0.295344289	0.251128711
671	0.2733579	0.295494022	0.251221778
672	0.2734888	0.295635656	0.251341944
673	0.27363055	0.295791789	0.251469311
674	0.27378825	0.29597898	0.25159752
675	0.2738942	0.296106151	0.251682249
676	0.274021075	0.296254621	0.251787529
677	0.274174525	0.296430144	0.251918906
678	0.27433385	0.296602043	0.252065657
679	0.2744704	0.29675514	0.25218566
680	0.274592575	0.296899243	0.252285907
681	0.274711275	0.29705258	0.25236997
682	0.2748571	0.297218597	0.252495603
683	0.274991725	0.297366224	0.252617226
684	0.2750894	0.297471341	0.252707459
685	0.27515625	0.297523383	0.252789117
686	0.27520145	0.297576446	0.252826454
687	0.2752296	0.297642956	0.252816244
688	0.275419575	0.29786458	0.25297457
689	0.2756113	0.298062556	0.253160044
690	0.275794275	0.298231857	0.253356693
691	0.275942425	0.298346716	0.253538134
692	0.276097975	0.298472353	0.253723597
693	0.276259075	0.298622506	0.253895644
694	0.2764257	0.298815431	0.254035969
695	0.276710775	0.299167562	0.254253988
696	0.2769664	0.299466891	0.254465909
697	0.277172075	0.299683512	0.254660638
698	0.277295825	0.299813215	0.254778435
699	0.277447675	0.299967639	0.254927711
700	0.277622275	0.30014933	0.25509522
701	0.27781385	0.300382974	0.255244726
702	0.2780547	0.300667822	0.255441578
703	0.27830655	0.300961027	0.255652073
704	0.2785464	0.301235047	0.255857753
705	0.2787614	0.301486589	0.256036211
706	0.278963975	0.301729472	0.256198478
707	0.2791553	0.301965366	0.256345234
708	0.27935725	0.302194093	0.256520407
709	0.2795798	0.302440683	0.256718917
710	0.279812275	0.302695389	0.256929161
711	0.280016775	0.302923429	0.257110121
712	0.280196225	0.303108782	0.257283668
713	0.2803386	0.303235979	0.257441221
714	0.280410425	0.303256067	0.257564783
715	0.2803668	0.303059443	0.257674157
716	0.280316425	0.302847034	0.257785816
717	0.28028925	0.302674025	0.257904475
718	0.280424375	0.302874139	0.257974611
719	0.28070675	0.303284302	0.258129198
720	0.281079025	0.303809168	0.258348882
721	0.2814338	0.304221205	0.258646395
722	0.281590225	0.304337337	0.258843113
723	0.281678	0.30436313	0.25899287
724	0.281793375	0.304474589	0.259112161
725	0.282028575	0.304750632	0.259306518
726	0.282275475	0.305036179	0.259514771
727	0.28250905	0.305293107	0.259724993
728	0.282720025	0.305549088	0.259890962
729	0.282965675	0.305858752	0.260072598
730	0.28325015	0.30622876	0.26027154
731	0.283632875	0.306751466	0.260514284
732	0.2840117	0.307249313	0.260774087
733	0.2843503	0.307673125	0.261027475
734	0.28458585	0.307923136	0.261248564
735	0.284798975	0.308177457	0.261420493
736	0.285028175	0.308451196	0.261605154
737	0.28528985	0.308753393	0.261826307
738	0.28555415	0.309071379	0.262036921
739	0.28582265	0.309394056	0.262251244
740	0.286088	0.309713308	0.262462692
741	0.286293875	0.30996968	0.26261807
742	0.28652755	0.3102392	0.2628159
743	0.286764425	0.310505354	0.263023496
744	0.2869683	0.310741833	0.263194767
745	0.2871959	0.311008408	0.263383392
746	0.28742045	0.311268707	0.263572193
747	0.287631175	0.311507122	0.263755228
748	0.287843575	0.311740171	0.263946979
749	0.288056025	0.311985094	0.264126956
750	0.288265875	0.312237041	0.264294709
751	0.2884592	0.31244777	0.26447063
752	0.288652125	0.31266418	0.26464007
753	0.288843075	0.312881527	0.264804623
754	0.289030125	0.313093576	0.264966674
755	0.28922795	0.313307057	0.265148843
756	0.28941085	0.313496659	0.265325041
757	0.289569125	0.313648959	0.265489291
758	0.2892825	0.31324405	0.26532095
759	0.288789225	0.312689389	0.264889061
760	0.288222475	0.312214606	0.264230344
761	0.288528	0.312566403	0.264489597
762	0.2888157	0.312903454	0.264727946
763	0.28916685	0.313317165	0.265016535
764	0.28970755	0.313951384	0.265463716
765	0.290259275	0.314580066	0.265938484
766	0.29073505	0.315116458	0.266353642
767	0.291126025	0.315554153	0.266697897
768	0.291421825	0.315875379	0.266968271
769	0.291677475	0.316168326	0.267186624
770	0.29190075	0.316444053	0.267357447
771	0.29208395	0.316653447	0.267514453
772	0.2922449	0.316832513	0.267657287
773	0.292392275	0.3169961	0.26778845
774	0.29254055	0.317175616	0.267905484
775	0.29271565	0.317389584	0.268041716
776	0.29288765	0.317596345	0.268178955
777	0.2930343	0.317763851	0.268304749
778	0.293149875	0.317901945	0.268397805
779	0.2932664	0.318045245	0.268487555
780	0.2933901	0.318200322	0.268579878
781	0.293555875	0.318388806	0.268722944
782	0.29369605	0.318557252	0.268834848
783	0.29381795	0.318704183	0.268931717
784	0.29393425	0.318806088	0.269062412
785	0.294014475	0.318891053	0.269137897
786	0.294063925	0.318946965	0.269180885
787	0.294071825	0.318948733	0.269194917
788	0.2941423	0.319029218	0.269255382
789	0.2942367	0.319142863	0.269330537
790	0.294349525	0.319283749	0.269415301
791	0.29445195	0.319426685	0.269477215
792	0.2945702	0.319587968	0.269552432
793	0.2946845	0.319740991	0.269628009
794	0.29469865	0.319755498	0.269641802
795	0.294737525	0.319798763	0.269676287
796	0.2948115	0.319894674	0.269728326
797	0.294949875	0.320096005	0.269803745
798	0.295001275	0.320153906	0.269848644
799	0.29503295	0.320186749	0.269879151
800	0.295058	0.320219732	0.269896268
801	0.29507975	0.320260843	0.269898657
802	0.2951372	0.320343391	0.269931009
803	0.295226825	0.320465985	0.269987665
804	0.29533905	0.320635138	0.270042962
805	0.295414275	0.320754148	0.270074402
806	0.2954611	0.32082791	0.27009429
807	0.295473525	0.320835514	0.270111536
808	0.295435325	0.320784868	0.270085782
809	0.295370325	0.320694431	0.270046219
810	0.295281	0.320562183	0.269999817
811	0.29516335	0.320366986	0.269959714
812	0.29503465	0.320134386	0.269934914
813	0.294893025	0.319870537	0.269915513
814	0.2947459	0.319658872	0.269832928
815	0.2946481	0.319520178	0.269776022
816	0.29459965	0.319471151	0.269728149
817	0.2946286	0.319590327	0.269666873
818	0.294734025	0.319813628	0.269654422
819	0.29483895	0.32002183	0.26965607
820	0.29491755	0.320172014	0.269663086
821	0.294792775	0.319923953	0.269661597
822	0.294680775	0.31979063	0.26957092
823	0.29462315	0.319827395	0.269418905
824	0.294788275	0.320143341	0.269433209
825	0.2948246	0.320214262	0.269434938
826	0.294780325	0.320147125	0.269413525
827	0.294672875	0.320015344	0.269330406
828	0.29463145	0.319987714	0.269275186
829	0.2946044	0.319993011	0.269215789
830	0.294572525	0.320009209	0.269135841
831	0.294554875	0.320022842	0.269086908
832	0.294544575	0.320057494	0.269031656
833	0.294539825	0.32011352	0.26896613
834	0.29452625	0.320176177	0.268876323
835	0.29451875	0.32023048	0.26880702
836	0.294500225	0.320257037	0.268743413
837	0.294427925	0.320196578	0.268659272
838	0.294376625	0.32018302	0.26857023
839	0.294330025	0.320178654	0.268481396
840	0.29428145	0.320166151	0.268396749
841	0.294222325	0.320115036	0.268329614
842	0.294153275	0.320048145	0.268258405
843	0.29407295	0.319969038	0.268176862
844	0.293960825	0.319909752	0.268011898
845	0.29387045	0.319839155	0.267901745
846	0.293795075	0.319764328	0.267825822
847	0.293727175	0.319701613	0.267752737
848	0.293644175	0.319614746	0.267673604
849	0.293542875	0.319509966	0.267575784
850	0.293417525	0.319388177	0.267446873
851	0.2933198	0.319335684	0.267303916
852	0.29320355	0.31924754	0.26715956
853	0.293061125	0.31910677	0.26701548
854	0.292989025	0.319014725	0.266963325
855	0.292896125	0.318950681	0.266841569
856	0.292801175	0.318902331	0.266700019
857	0.2927407	0.318834756	0.266646644
858	0.292659975	0.318768374	0.266551576
859	0.292554675	0.318672239	0.266437111
860	0.292412075	0.318510058	0.266314092
